0.5232385438285759,0.5448925945338284,0.5484671357616822,0.5320036499975053,0.4961479637857807,0.44400970272437007,0.38069653070145393,0.31245485140434015,0.2456838912014829,0.18588826545288673,0.13687609185261213,0.10044695232874497,0.07644256704699813,0.06318004868735833,0.057946772723326406,0.057614394481891956,0.05928301328933798,0.06072857275973965,0.0606417047005101,0.05862961314445471,0.054914254201439444,0.05012401561096154,0.04501457847248117,0.04021477675724559,0.0361831746501868,0.03296265336585946,0.03032182495220203,0.027887268618832693,0.0252345240982426,0.022222022054840817,0.01875237479313494,0.014878701887636039,0.010759958765184225,0.006496604901918269,0.0023919356732581454,-0.001480581870630584,-0.005144143047605099,-0.008683507300000323,-0.012335340356757596,-0.015988498424967277,-0.0197454945707891,-0.02373740022512868,-0.02812697336518487,-0.033271657207090764,-0.03907563167994614,-0.04566692297832928,-0.05305832173727209,-0.06106792292518242,-0.06955513949770775,-0.07754067597809139,-0.08448106467644734,-0.09000487562991191,-0.09400887248517995,-0.09704262086969599,-0.09900686041763652,-0.10058146256924479,-0.10245386448306978,-0.10505840937464833,-0.10862380646345798,-0.11233130293441397,-0.11538484042851961,0.0,0.0,0.0,0.0,0.0,0.0,0.0,0.0,0.0,0.0,0.0,0.0,0.0,0.0,0.0,0.0,0.0,0.0,0.0,0.0,0.0,0.0,0.0,0.0,0.0,0.0,0.0,0.0,0.0,0.0,0.0,0.0,0.0,0.0,0.0,0.0,0.0,0.0,0.0,0.0,0.0,0.0,0.0,0.0,0.0,0.0,0.0,0.0,0.0,0.0,0.0,0.0,0.0,0.0,0.0,0.0,0.0,0.0,0.0,0.0,0.0,0.0,0.0,0.0,0.0,0.0,0.0,0.0,0.0,0.0,0.0,0.0,0.0,0.0,0.0,0.0,0.0,0.0,0.0,0.0,0.0,0.0,0.0,0.0,0.0,0.0,0.0,0.0,0.0,0.0,0.0,0.0,0.0,0.0,0.0,0.0,0.0,0.0,0.0,0.0,0.0,0.0,0.0,0.0,0.0,0.0,0.0,0.0,0.0,0.0,0.0,0.0,0.0,0.0,0.0,0.0,0.0,0.0,0.0,0.0,0.0,0.0,0.0,0.0,0.0,0.0,0.0,0.0,0.0,0.0,0.0,0.0,0.0,0.0,0.0,0.0,0.0,0.0,0.0,0.0,0.0,0.0,0.0,0.0,0.0,0.0,0.0,0.0,0.0,0.0,0.0,0.0,0.0,0.0,0.0,0.0,0.0,0.0,0.0,0.0,0.0,0.0,0.0,0.0,0.0,0.0,0.0,0.0,0.0,0.0,0.0,0.0,0.0,0.0,0.0,0.0,0.0,0.0,0.0,0.0,0.0,0.0,0.0,0.0,0.0,0.0,0.0,0.0,0.0,0.0,0.0,0.0,0.0,0.0,0.0,0.0,0.0,0.0,0.0,0.0,0.0,0.0,0.0,0.0,0.0,0.0,0.0,0.0,0.0,0.0,0.0,0.0,0.0,0.0,0.0,0.0,0.0,0.0,0.0,0.0,0.0,0.0,0.0,0.0,0.0,0.0,0.0,0.0,0.0,0.0,0.0,0.0,0.0,0.0,0.0,0.0,0.0,0.0,0.0
0.3640313646679735,0.40476053242641885,0.43083372612196036,0.43862586428105405,0.42663996668404286,0.39588090323292374,0.349593404588868,0.2927773202174048,0.23138264700548297,0.17135427771534567,0.11788463082549955,0.07461854928623174,0.043371163761833156,0.024139429729911944,0.015372919923736895,0.014621741957586682,0.018955931959330964,0.025575897505874915,0.032233677597149395,0.037424750050352375,0.040576536992264954,0.04173854312857752,0.0414194307578364,0.04032792546438684,0.03909350163453001,0.03826520785630756,0.03803901149941074,0.038344601865208224,0.038931870549946644,0.03943391238439786,0.03965136783004778,0.039417770551999895,0.038691054756206614,0.03753581563550643,0.03601954629447161,0.03435406573298154,0.032646578781904384,0.030951506522853785,0.029279883693204927,0.02755227908684621,0.025855287491503218,0.02419775016949627,0.022588685520908935,0.021023951750903425,0.01939041950225846,0.017737156998779476,0.01599052389660314,0.014083325301629354,0.011995252774613382,0.009609899729050724,0.007347633652827949,0.005383486807205074,0.003881398406924996,0.0029665537983233365,0.0024296579219644427,0.0026836541604340555,0.003545030441814191,0.004725632170079418,0.005936015129998876,0.006818160254245579,0.00753539722974387,0.0,0.0,0.0,0.0,0.0,0.0,0.0,0.0,0.0,0.0,0.0,0.0,0.0,0.0,0.0,0.0,0.0,0.0,0.0,0.0,0.0,0.0,0.0,0.0,0.0,0.0,0.0,0.0,0.0,0.0,0.0,0.0,0.0,0.0,0.0,0.0,0.0,0.0,0.0,0.0,0.0,0.0,0.0,0.0,0.0,0.0,0.0,0.0,0.0,0.0,0.0,0.0,0.0,0.0,0.0,0.0,0.0,0.0,0.0,0.0,0.0,0.0,0.0,0.0,0.0,0.0,0.0,0.0,0.0,0.0,0.0,0.0,0.0,0.0,0.0,0.0,0.0,0.0,0.0,0.0,0.0,0.0,0.0,0.0,0.0,0.0,0.0,0.0,0.0,0.0,0.0,0.0,0.0,0.0,0.0,0.0,0.0,0.0,0.0,0.0,0.0,0.0,0.0,0.0,0.0,0.0,0.0,0.0,0.0,0.0,0.0,0.0,0.0,0.0,0.0,0.0,0.0,0.0,0.0,0.0,0.0,0.0,0.0,0.0,0.0,0.0,0.0,0.0,0.0,0.0,0.0,0.0,0.0,0.0,0.0,0.0,0.0,0.0,0.0,0.0,0.0,0.0,0.0,0.0,0.0,0.0,0.0,0.0,0.0,0.0,0.0,0.0,0.0,0.0,0.0,0.0,0.0,0.0,0.0,0.0,0.0,0.0,0.0,0.0,0.0,0.0,0.0,0.0,0.0,0.0,0.0,0.0,0.0,0.0,0.0,0.0,0.0,0.0,0.0,0.0,0.0,0.0,0.0,0.0,0.0,0.0,0.0,0.0,0.0,0.0,0.0,0.0,0.0,0.0,0.0,0.0,0.0,0.0,0.0,0.0,0.0,0.0,0.0,0.0,0.0,0.0,0.0,0.0,0.0,0.0,0.0,0.0,0.0,0.0,0.0,0.0,0.0,0.0,0.0,0.0,0.0,0.0,0.0,0.0,0.0,0.0,0.0,0.0,0.0,0.0,0.0,0.0,0.0,0.0,0.0,0.0,0.0,0.0,0.0
0.03233296127952697,0.03216865873514578,0.03203902494281793,0.03201895364315709,0.03219245512617832,0.03258731431913815,0.03331507511038861,0.034385696041924964,0.035753505130958846,0.03731840614656244,0.03888396629845959,0.04034626143610019,0.04152986855533811,0.042271533895491924,0.04244435716694657,0.041922038906563465,0.04077717251328047,0.03908422118648175,0.03698012751507374,0.034652652013954094,0.03227097700343057,0.0301251575352087,0.028419412257607357,0.02730460240105118,0.02686094686096161,0.02704628833853698,0.027843436764624408,0.029117028600062947,0.030686716238797818,0.0323575385834938,0.03390734997182264,0.03526143595762132,0.036356994295151726,0.037199055748748856,0.03785413030602599,0.03838535050298579,0.03897166769277248,0.0397218885188804,0.04069267435865849,0.041868877598294246,0.04311921409437127,0.044337046161514744,0.0453299163387947,0.0458998810205326,0.045883624890562504,0.04515350951886846,0.04374888751223296,0.041758989807034685,0.03934920185806279,0.03673557188924617,0.034119738855541995,0.0317609475197787,0.029829780636820076,0.028428646262285747,0.027587518887929836,0.027240551391009137,0.027343470117658298,0.027778672732360208,0.028412957332923896,0.02911657375852486,0.02973565673619406,0.0,0.0,0.0,0.0,0.0,0.0,0.0,0.0,0.0,0.0,0.0,0.0,0.0,0.0,0.0,0.0,0.0,0.0,0.0,0.0,0.0,0.0,0.0,0.0,0.0,0.0,0.0,0.0,0.0,0.0,0.0,0.0,0.0,0.0,0.0,0.0,0.0,0.0,0.0,0.0,0.0,0.0,0.0,0.0,0.0,0.0,0.0,0.0,0.0,0.0,0.0,0.0,0.0,0.0,0.0,0.0,0.0,0.0,0.0,0.0,0.0,0.0,0.0,0.0,0.0,0.0,0.0,0.0,0.0,0.0,0.0,0.0,0.0,0.0,0.0,0.0,0.0,0.0,0.0,0.0,0.0,0.0,0.0,0.0,0.0,0.0,0.0,0.0,0.0,0.0,0.0,0.0,0.0,0.0,0.0,0.0,0.0,0.0,0.0,0.0,0.0,0.0,0.0,0.0,0.0,0.0,0.0,0.0,0.0,0.0,0.0,0.0,0.0,0.0,0.0,0.0,0.0,0.0,0.0,0.0,0.0,0.0,0.0,0.0,0.0,0.0,0.0,0.0,0.0,0.0,0.0,0.0,0.0,0.0,0.0,0.0,0.0,0.0,0.0,0.0,0.0,0.0,0.0,0.0,0.0,0.0,0.0,0.0,0.0,0.0,0.0,0.0,0.0,0.0,0.0,0.0,0.0,0.0,0.0,0.0,0.0,0.0,0.0,0.0,0.0,0.0,0.0,0.0,0.0,0.0,0.0,0.0,0.0,0.0,0.0,0.0,0.0,0.0,0.0,0.0,0.0,0.0,0.0,0.0,0.0,0.0,0.0,0.0,0.0,0.0,0.0,0.0,0.0,0.0,0.0,0.0,0.0,0.0,0.0,0.0,0.0,0.0,0.0,0.0,0.0,0.0,0.0,0.0,0.0,0.0,0.0,0.0,0.0,0.0,0.0,0.0,0.0,0.0,0.0,0.0,0.0,0.0,0.0,0.0,0.0,0.0,0.0,0.0,0.0,0.0,0.0,0.0,0.0,0.0,0.0,0.0,0.0,0.0,0.0
0.021327872144612372,0.022087260897940057,0.022817266509608625,0.023343872767016816,0.023710559463727993,0.0240168264880214,0.02449014813963359,0.02546540879150736,0.027254764957991336,0.03030148235767058,0.034851431570795295,0.0409182241575935,0.048201938184773606,0.05598439128101059,0.06336595767918703,0.06915133035379509,0.07206327301698942,0.07093846757803986,0.06487865799956873,0.05362787179803315,0.03751598338535459,0.017547257825216822,-0.004676936591870552,-0.02719570494184067,-0.04778504745613426,-0.06442863032152293,-0.07556081216582294,-0.08029234076178096,-0.07857370276076457,-0.0710292557559476,-0.05896242379440378,-0.04407493790999544,-0.028182284127034985,-0.012983900132658413,0.0003093362443753251,0.010955871405715942,0.01874681951864289,0.02392777250771098,0.027004110728714597,0.02872010344764575,0.029749641965557627,0.030619468742805134,0.031648928922589,0.03290415683390778,0.03439933176401261,0.036033176958305366,0.03770554037794666,0.03937008533746701,0.04100594502585952,0.04274837686893062,0.04471189248278698,0.04697374996894269,0.049524855269479306,0.05219250094594591,0.054809259296949256,0.05710319371500771,0.058798909326952836,0.0596796252014916,0.059581522403112756,0.05859634234261683,0.05690255376660412,0.0,0.0,0.0,0.0,0.0,0.0,0.0,0.0,0.0,0.0,0.0,0.0,0.0,0.0,0.0,0.0,0.0,0.0,0.0,0.0,0.0,0.0,0.0,0.0,0.0,0.0,0.0,0.0,0.0,0.0,0.0,0.0,0.0,0.0,0.0,0.0,0.0,0.0,0.0,0.0,0.0,0.0,0.0,0.0,0.0,0.0,0.0,0.0,0.0,0.0,0.0,0.0,0.0,0.0,0.0,0.0,0.0,0.0,0.0,0.0,0.0,0.0,0.0,0.0,0.0,0.0,0.0,0.0,0.0,0.0,0.0,0.0,0.0,0.0,0.0,0.0,0.0,0.0,0.0,0.0,0.0,0.0,0.0,0.0,0.0,0.0,0.0,0.0,0.0,0.0,0.0,0.0,0.0,0.0,0.0,0.0,0.0,0.0,0.0,0.0,0.0,0.0,0.0,0.0,0.0,0.0,0.0,0.0,0.0,0.0,0.0,0.0,0.0,0.0,0.0,0.0,0.0,0.0,0.0,0.0,0.0,0.0,0.0,0.0,0.0,0.0,0.0,0.0,0.0,0.0,0.0,0.0,0.0,0.0,0.0,0.0,0.0,0.0,0.0,0.0,0.0,0.0,0.0,0.0,0.0,0.0,0.0,0.0,0.0,0.0,0.0,0.0,0.0,0.0,0.0,0.0,0.0,0.0,0.0,0.0,0.0,0.0,0.0,0.0,0.0,0.0,0.0,0.0,0.0,0.0,0.0,0.0,0.0,0.0,0.0,0.0,0.0,0.0,0.0,0.0,0.0,0.0,0.0,0.0,0.0,0.0,0.0,0.0,0.0,0.0,0.0,0.0,0.0,0.0,0.0,0.0,0.0,0.0,0.0,0.0,0.0,0.0,0.0,0.0,0.0,0.0,0.0,0.0,0.0,0.0,0.0,0.0,0.0,0.0,0.0,0.0,0.0,0.0,0.0,0.0,0.0,0.0,0.0,0.0,0.0,0.0,0.0,0.0,0.0,0.0,0.0,0.0,0.0,0.0,0.0,0.0,0.0,0.0,0.0
0.04697374996894269,0.049524855269479306,0.05219250094594591,0.054809259296949256,0.05710319371500771,0.058798909326952836,0.0596796252014916,0.059581522403112756,0.05859634234261683,0.05690255376660412,0.054773518656226025,0.05251586407127196,0.050339944698296814,0.04851066854276189,0.04710870044631823,0.046097389329549154,0.045352102941052325,0.04463746953164989,0.0438914609003316,0.04300989768104321,0.04195509332100479,0.04076136391589311,0.03948964410269787,0.03828314595689747,0.037272109589653796,0.03655398151468829,0.036170624890733895,0.03611151010400878,0.03626053545025571,0.0365507737977121,0.03691972260313138,0.03731170436259016,0.03765873385373942,0.037931070190698815,0.03813402331529719,0.03829558862909843,0.038452783834446426,0.03858638526626617,0.03876785581424867,0.039006256977341,0.03929076872011867,0.03959552984987232,0.03983760944835293,0.04005457705891652,0.040253763426264515,0.04046525353385052,0.04073827586529821,0.04107717434718639,0.0415980172437275,0.04233636686579888,0.04328732333544901,0.044398176754565116,0.04551350035631986,0.04657385996871821,0.04743747651961892,0.04796762795085919,0.04805807764383202,0.04759308478028436,0.04666074140816866,0.04533289086625773,0.04372754883619048,0.0,0.0,0.0,0.0,0.0,0.0,0.0,0.0,0.0,0.0,0.0,0.0,0.0,0.0,0.0,0.0,0.0,0.0,0.0,0.0,0.0,0.0,0.0,0.0,0.0,0.0,0.0,0.0,0.0,0.0,0.0,0.0,0.0,0.0,0.0,0.0,0.0,0.0,0.0,0.0,0.0,0.0,0.0,0.0,0.0,0.0,0.0,0.0,0.0,0.0,0.0,0.0,0.0,0.0,0.0,0.0,0.0,0.0,0.0,0.0,0.0,0.0,0.0,0.0,0.0,0.0,0.0,0.0,0.0,0.0,0.0,0.0,0.0,0.0,0.0,0.0,0.0,0.0,0.0,0.0,0.0,0.0,0.0,0.0,0.0,0.0,0.0,0.0,0.0,0.0,0.0,0.0,0.0,0.0,0.0,0.0,0.0,0.0,0.0,0.0,0.0,0.0,0.0,0.0,0.0,0.0,0.0,0.0,0.0,0.0,0.0,0.0,0.0,0.0,0.0,0.0,0.0,0.0,0.0,0.0,0.0,0.0,0.0,0.0,0.0,0.0,0.0,0.0,0.0,0.0,0.0,0.0,0.0,0.0,0.0,0.0,0.0,0.0,0.0,0.0,0.0,0.0,0.0,0.0,0.0,0.0,0.0,0.0,0.0,0.0,0.0,0.0,0.0,0.0,0.0,0.0,0.0,0.0,0.0,0.0,0.0,0.0,0.0,0.0,0.0,0.0,0.0,0.0,0.0,0.0,0.0,0.0,0.0,0.0,0.0,0.0,0.0,0.0,0.0,0.0,0.0,0.0,0.0,0.0,0.0,0.0,0.0,0.0,0.0,0.0,0.0,0.0,0.0,0.0,0.0,0.0,0.0,0.0,0.0,0.0,0.0,0.0,0.0,0.0,0.0,0.0,0.0,0.0,0.0,0.0,0.0,0.0,0.0,0.0,0.0,0.0,0.0,0.0,0.0,0.0,0.0,0.0,0.0,0.0,0.0,0.0,0.0,0.0,0.0,0.0,0.0,0.0,0.0,0.0,0.0,0.0,0.0,0.0,0.0
0.044398176754565116,0.04551350035631986,0.04657385996871821,0.04743747651961892,0.04796762795085919,0.04805807764383202,0.04759308478028436,0.04666074140816866,0.04533289086625773,0.04372754883619048,0.04199317825617856,0.04023125875236879,0.03865908898771156,0.03738863181012853,0.03647782974895946,0.0359282788685251,0.03564061466121656,0.03559919111177763,0.03571042208262427,0.03588029635703863,0.03603306967193343,0.03606946094754863,0.03605087986330115,0.036015082140136434,0.036021888399713424,0.03613786047534176,0.036360924752956075,0.036792320924851026,0.037443516618154274,0.03828629931046288,0.0392542675855636,0.040232574168229035,0.04114096113146572,0.0418596125250409,0.04228816979259588,0.04237067469578544,0.042132357934672925,0.04163011881595708,0.040933750357176786,0.04012317365463613,0.03927681685400591,0.03845894127753973,0.03774042887051548,0.03713290334791489,0.03662261032452579,0.03618295901222637,0.035757203893396594,0.035368566658508196,0.034999468776569426,0.03463470063510596,0.03426316498996088,0.03383038962253467,0.03340422496002967,0.03300126968592735,0.032641210403185274,0.03234337096769539,0.032050978023718285,0.03184937397995327,0.031735424497501157,0.03168449293091773,0.03165488766787042,0.0,0.0,0.0,0.0,0.0,0.0,0.0,0.0,0.0,0.0,0.0,0.0,0.0,0.0,0.0,0.0,0.0,0.0,0.0,0.0,0.0,0.0,0.0,0.0,0.0,0.0,0.0,0.0,0.0,0.0,0.0,0.0,0.0,0.0,0.0,0.0,0.0,0.0,0.0,0.0,0.0,0.0,0.0,0.0,0.0,0.0,0.0,0.0,0.0,0.0,0.0,0.0,0.0,0.0,0.0,0.0,0.0,0.0,0.0,0.0,0.0,0.0,0.0,0.0,0.0,0.0,0.0,0.0,0.0,0.0,0.0,0.0,0.0,0.0,0.0,0.0,0.0,0.0,0.0,0.0,0.0,0.0,0.0,0.0,0.0,0.0,0.0,0.0,0.0,0.0,0.0,0.0,0.0,0.0,0.0,0.0,0.0,0.0,0.0,0.0,0.0,0.0,0.0,0.0,0.0,0.0,0.0,0.0,0.0,0.0,0.0,0.0,0.0,0.0,0.0,0.0,0.0,0.0,0.0,0.0,0.0,0.0,0.0,0.0,0.0,0.0,0.0,0.0,0.0,0.0,0.0,0.0,0.0,0.0,0.0,0.0,0.0,0.0,0.0,0.0,0.0,0.0,0.0,0.0,0.0,0.0,0.0,0.0,0.0,0.0,0.0,0.0,0.0,0.0,0.0,0.0,0.0,0.0,0.0,0.0,0.0,0.0,0.0,0.0,0.0,0.0,0.0,0.0,0.0,0.0,0.0,0.0,0.0,0.0,0.0,0.0,0.0,0.0,0.0,0.0,0.0,0.0,0.0,0.0,0.0,0.0,0.0,0.0,0.0,0.0,0.0,0.0,0.0,0.0,0.0,0.0,0.0,0.0,0.0,0.0,0.0,0.0,0.0,0.0,0.0,0.0,0.0,0.0,0.0,0.0,0.0,0.0,0.0,0.0,0.0,0.0,0.0,0.0,0.0,0.0,0.0,0.0,0.0,0.0,0.0,0.0,0.0,0.0,0.0,0.0,0.0,0.0,0.0,0.0,0.0,0.0,0.0,0.0,0.0
0.03383038962253467,0.03340422496002967,0.03300126968592735,0.032641210403185274,0.03234337096769539,0.032050978023718285,0.03184937397995327,0.031735424497501157,0.03168449293091773,0.03165488766787042,0.031529391799911946,0.03135721843667419,0.031155538117475803,0.0309879681657185,0.03096640436804543,0.0311674576669503,0.03182734280040931,0.03308916827147923,0.035011537024066536,0.03751527173957977,0.040271406733786,0.04292031273774813,0.04488239835700941,0.04548558299171808,0.0440641391111141,0.040005391065931165,0.03311141292804609,0.023478557413457727,0.011608684739620286,-0.0016157461988354723,-0.015104406165266551,-0.027490259908703716,-0.03754725447137313,-0.04432305869775288,-0.047295631508785047,-0.046523775921458274,-0.04240649807664835,-0.03579409689674247,-0.027747786341321704,-0.019336646973350316,-0.011518357289615918,-0.004787091273683679,0.000671270129958474,0.005010553668526571,0.008622337562084413,0.01192783105405716,0.01544512834455726,0.019474951143483202,0.024098773505949224,0.029177201678160427,0.03433636809847285,0.03926447513084225,0.04361273691122305,0.047134553616643114,0.04973206579423644,0.05139644767734439,0.052382350664728745,0.05295767262567418,0.053391487868830176,0.05389237465110464,0.054502444502471756,0.0,0.0,0.0,0.0,0.0,0.0,0.0,0.0,0.0,0.0,0.0,0.0,0.0,0.0,0.0,0.0,0.0,0.0,0.0,0.0,0.0,0.0,0.0,0.0,0.0,0.0,0.0,0.0,0.0,0.0,0.0,0.0,0.0,0.0,0.0,0.0,0.0,0.0,0.0,0.0,0.0,0.0,0.0,0.0,0.0,0.0,0.0,0.0,0.0,0.0,0.0,0.0,0.0,0.0,0.0,0.0,0.0,0.0,0.0,0.0,0.0,0.0,0.0,0.0,0.0,0.0,0.0,0.0,0.0,0.0,0.0,0.0,0.0,0.0,0.0,0.0,0.0,0.0,0.0,0.0,0.0,0.0,0.0,0.0,0.0,0.0,0.0,0.0,0.0,0.0,0.0,0.0,0.0,0.0,0.0,0.0,0.0,0.0,0.0,0.0,0.0,0.0,0.0,0.0,0.0,0.0,0.0,0.0,0.0,0.0,0.0,0.0,0.0,0.0,0.0,0.0,0.0,0.0,0.0,0.0,0.0,0.0,0.0,0.0,0.0,0.0,0.0,0.0,0.0,0.0,0.0,0.0,0.0,0.0,0.0,0.0,0.0,0.0,0.0,0.0,0.0,0.0,0.0,0.0,0.0,0.0,0.0,0.0,0.0,0.0,0.0,0.0,0.0,0.0,0.0,0.0,0.0,0.0,0.0,0.0,0.0,0.0,0.0,0.0,0.0,0.0,0.0,0.0,0.0,0.0,0.0,0.0,0.0,0.0,0.0,0.0,0.0,0.0,0.0,0.0,0.0,0.0,0.0,0.0,0.0,0.0,0.0,0.0,0.0,0.0,0.0,0.0,0.0,0.0,0.0,0.0,0.0,0.0,0.0,0.0,0.0,0.0,0.0,0.0,0.0,0.0,0.0,0.0,0.0,0.0,0.0,0.0,0.0,0.0,0.0,0.0,0.0,0.0,0.0,0.0,0.0,0.0,0.0,0.0,0.0,0.0,0.0,0.0,0.0,0.0,0.0,0.0,0.0,0.0,0.0,0.0,0.0,0.0,0.0
0.03926447513084225,0.04361273691122305,0.047134553616643114,0.04973206579423644,0.05139644767734439,0.052382350664728745,0.05295767262567418,0.053391487868830176,0.05389237465110464,0.054502444502471756,0.055300369033058995,0.05622646833568396,0.05717815844719646,0.05805268350797286,0.05871339193959582,0.05922386492212428,0.059644943432767585,0.06006602093182426,0.060565951990379244,0.061111751280456914,0.06174187739891958,0.06236910665169152,0.06286162350409973,0.06307922047278562,0.06285337681058434,0.06221268454509149,0.06119975369372296,0.05992438951870397,0.05853784979674995,0.0571621003072081,0.055955671264979766,0.055012655676320965,0.0543675814919405,0.05399647912071426,0.05382162130092533,0.053741980493608246,0.053699993372266004,0.05366403580766119,0.05362199738632426,0.05354331004588726,0.053443243284164145,0.053344112376909475,0.0532718295114161,0.05324751565193425,0.0532355317336948,0.053276787330354035,0.05337335514588213,0.05351696586275394,0.053687723333670966,0.05380258575928831,0.05389597921780654,0.05396607292859218,0.0540306451447738,0.054127931015407686,0.05424633957190254,0.05451951500720082,0.05499483813413743,0.055682666750274105,0.056543830303746094,0.057417197670531196,0.05825090243038876,0.0,0.0,0.0,0.0,0.0,0.0,0.0,0.0,0.0,0.0,0.0,0.0,0.0,0.0,0.0,0.0,0.0,0.0,0.0,0.0,0.0,0.0,0.0,0.0,0.0,0.0,0.0,0.0,0.0,0.0,0.0,0.0,0.0,0.0,0.0,0.0,0.0,0.0,0.0,0.0,0.0,0.0,0.0,0.0,0.0,0.0,0.0,0.0,0.0,0.0,0.0,0.0,0.0,0.0,0.0,0.0,0.0,0.0,0.0,0.0,0.0,0.0,0.0,0.0,0.0,0.0,0.0,0.0,0.0,0.0,0.0,0.0,0.0,0.0,0.0,0.0,0.0,0.0,0.0,0.0,0.0,0.0,0.0,0.0,0.0,0.0,0.0,0.0,0.0,0.0,0.0,0.0,0.0,0.0,0.0,0.0,0.0,0.0,0.0,0.0,0.0,0.0,0.0,0.0,0.0,0.0,0.0,0.0,0.0,0.0,0.0,0.0,0.0,0.0,0.0,0.0,0.0,0.0,0.0,0.0,0.0,0.0,0.0,0.0,0.0,0.0,0.0,0.0,0.0,0.0,0.0,0.0,0.0,0.0,0.0,0.0,0.0,0.0,0.0,0.0,0.0,0.0,0.0,0.0,0.0,0.0,0.0,0.0,0.0,0.0,0.0,0.0,0.0,0.0,0.0,0.0,0.0,0.0,0.0,0.0,0.0,0.0,0.0,0.0,0.0,0.0,0.0,0.0,0.0,0.0,0.0,0.0,0.0,0.0,0.0,0.0,0.0,0.0,0.0,0.0,0.0,0.0,0.0,0.0,0.0,0.0,0.0,0.0,0.0,0.0,0.0,0.0,0.0,0.0,0.0,0.0,0.0,0.0,0.0,0.0,0.0,0.0,0.0,0.0,0.0,0.0,0.0,0.0,0.0,0.0,0.0,0.0,0.0,0.0,0.0,0.0,0.0,0.0,0.0,0.0,0.0,0.0,0.0,0.0,0.0,0.0,0.0,0.0,0.0,0.0,0.0,0.0,0.0,0.0,0.0,0.0,0.0,0.0,0.0
0.05396607292859218,0.0540306451447738,0.054127931015407686,0.05424633957190254,0.05451951500720082,0.05499483813413743,0.055682666750274105,0.056543830303746094,0.057417197670531196,0.05825090243038876,0.05888942409685549,0.0591714991243865,0.0589597295920845,0.05809435340454641,0.05665237510929248,0.05470719189320291,0.05239906669720522,0.04991562609813579,0.04740775896446085,0.0451418423209723,0.04326132149135064,0.041838162202968404,0.04087152260418707,0.04026322719872497,0.03996943098957993,0.03985629575654721,0.03979109698658427,0.03967334963892338,0.03941402921844739,0.039092094933003405,0.03876869188387267,0.038531694406350805,0.03847517667365969,0.038627652224242456,0.03909866978964237,0.03987902465551792,0.040902133016657106,0.042057324508769374,0.04314351706852349,0.04411817095966284,0.04488935306331279,0.04540152801427687,0.04563947234387906,0.045534795660851314,0.04523438651911011,0.04481251533737077,0.04433780274618355,0.043861898528209944,0.043323285592466565,0.04284402364358131,0.04245517494286642,0.04218930172363667,0.042084324712540824,0.04208599284025283,0.04234650608818887,0.0429173894262813,0.043815183576987625,0.04499629417094661,0.04623893254831124,0.04744267466652486,0.04833821209434655,0.0,0.0,0.0,0.0,0.0,0.0,0.0,0.0,0.0,0.0,0.0,0.0,0.0,0.0,0.0,0.0,0.0,0.0,0.0,0.0,0.0,0.0,0.0,0.0,0.0,0.0,0.0,0.0,0.0,0.0,0.0,0.0,0.0,0.0,0.0,0.0,0.0,0.0,0.0,0.0,0.0,0.0,0.0,0.0,0.0,0.0,0.0,0.0,0.0,0.0,0.0,0.0,0.0,0.0,0.0,0.0,0.0,0.0,0.0,0.0,0.0,0.0,0.0,0.0,0.0,0.0,0.0,0.0,0.0,0.0,0.0,0.0,0.0,0.0,0.0,0.0,0.0,0.0,0.0,0.0,0.0,0.0,0.0,0.0,0.0,0.0,0.0,0.0,0.0,0.0,0.0,0.0,0.0,0.0,0.0,0.0,0.0,0.0,0.0,0.0,0.0,0.0,0.0,0.0,0.0,0.0,0.0,0.0,0.0,0.0,0.0,0.0,0.0,0.0,0.0,0.0,0.0,0.0,0.0,0.0,0.0,0.0,0.0,0.0,0.0,0.0,0.0,0.0,0.0,0.0,0.0,0.0,0.0,0.0,0.0,0.0,0.0,0.0,0.0,0.0,0.0,0.0,0.0,0.0,0.0,0.0,0.0,0.0,0.0,0.0,0.0,0.0,0.0,0.0,0.0,0.0,0.0,0.0,0.0,0.0,0.0,0.0,0.0,0.0,0.0,0.0,0.0,0.0,0.0,0.0,0.0,0.0,0.0,0.0,0.0,0.0,0.0,0.0,0.0,0.0,0.0,0.0,0.0,0.0,0.0,0.0,0.0,0.0,0.0,0.0,0.0,0.0,0.0,0.0,0.0,0.0,0.0,0.0,0.0,0.0,0.0,0.0,0.0,0.0,0.0,0.0,0.0,0.0,0.0,0.0,0.0,0.0,0.0,0.0,0.0,0.0,0.0,0.0,0.0,0.0,0.0,0.0,0.0,0.0,0.0,0.0,0.0,0.0,0.0,0.0,0.0,0.0,0.0,0.0,0.0,0.0,0.0,0.0,0.0
0.04218930172363667,0.042084324712540824,0.04208599284025283,0.04234650608818887,0.0429173894262813,0.043815183576987625,0.04499629417094661,0.04623893254831124,0.04744267466652486,0.04833821209434655,0.04860330609841511,0.04790826362935239,0.045878611722357396,0.04247239500041911,0.03773197318024529,0.03190265637845157,0.02542126369021699,0.018775236287510533,0.012694068789734362,0.007774316986006035,0.004454219678750607,0.0029342637510815857,0.0030664410044706,0.00462413470059128,0.007144217228350668,0.010103357583400578,0.013032854969512234,0.015537141497764936,0.017596852484640445,0.019340709768007593,0.02106281609349202,0.023131446187942876,0.02580421817822443,0.029379762902254875,0.03390551319860149,0.03922736503949062,0.04501779764444763,0.05076341230312324,0.056105223438674766,0.060689323396232384,0.06430309447762947,0.06690414910095238,0.06852881276181187,0.0695029707293189,0.07012945910577499,0.07068807750863634,0.0713738552559505,0.07218826956420989,0.07317292830979845,0.07421182761688747,0.07514921359345277,0.0758435614109486,0.07614433463734151,0.07612750143209554,0.0758802131390218,0.07553383132481774,0.07521932366950042,0.07496004388797332,0.07484766743366453,0.0748300476888123,0.07479277865762393,0.0,0.0,0.0,0.0,0.0,0.0,0.0,0.0,0.0,0.0,0.0,0.0,0.0,0.0,0.0,0.0,0.0,0.0,0.0,0.0,0.0,0.0,0.0,0.0,0.0,0.0,0.0,0.0,0.0,0.0,0.0,0.0,0.0,0.0,0.0,0.0,0.0,0.0,0.0,0.0,0.0,0.0,0.0,0.0,0.0,0.0,0.0,0.0,0.0,0.0,0.0,0.0,0.0,0.0,0.0,0.0,0.0,0.0,0.0,0.0,0.0,0.0,0.0,0.0,0.0,0.0,0.0,0.0,0.0,0.0,0.0,0.0,0.0,0.0,0.0,0.0,0.0,0.0,0.0,0.0,0.0,0.0,0.0,0.0,0.0,0.0,0.0,0.0,0.0,0.0,0.0,0.0,0.0,0.0,0.0,0.0,0.0,0.0,0.0,0.0,0.0,0.0,0.0,0.0,0.0,0.0,0.0,0.0,0.0,0.0,0.0,0.0,0.0,0.0,0.0,0.0,0.0,0.0,0.0,0.0,0.0,0.0,0.0,0.0,0.0,0.0,0.0,0.0,0.0,0.0,0.0,0.0,0.0,0.0,0.0,0.0,0.0,0.0,0.0,0.0,0.0,0.0,0.0,0.0,0.0,0.0,0.0,0.0,0.0,0.0,0.0,0.0,0.0,0.0,0.0,0.0,0.0,0.0,0.0,0.0,0.0,0.0,0.0,0.0,0.0,0.0,0.0,0.0,0.0,0.0,0.0,0.0,0.0,0.0,0.0,0.0,0.0,0.0,0.0,0.0,0.0,0.0,0.0,0.0,0.0,0.0,0.0,0.0,0.0,0.0,0.0,0.0,0.0,0.0,0.0,0.0,0.0,0.0,0.0,0.0,0.0,0.0,0.0,0.0,0.0,0.0,0.0,0.0,0.0,0.0,0.0,0.0,0.0,0.0,0.0,0.0,0.0,0.0,0.0,0.0,0.0,0.0,0.0,0.0,0.0,0.0,0.0,0.0,0.0,0.0,0.0,0.0,0.0,0.0,0.0,0.0,0.0,0.0,0.0
0.0758435614109486,0.07614433463734151,0.07612750143209554,0.0758802131390218,0.07553383132481774,0.07521932366950042,0.07496004388797332,0.07484766743366453,0.0748300476888123,0.07479277865762393,0.07459508592805222,0.07405200161452521,0.07316640910437124,0.07194601207551389,0.07046652431923764,0.06885378008792303,0.06720720256681069,0.06571812250602357,0.06450252131259541,0.06362837983714635,0.06311247424779383,0.06289223123296761,0.06294044836827718,0.06319557635574541,0.06358922573521932,0.06404814723991373,0.06445372345983923,0.06477895058640255,0.0649824967992366,0.06504749422429247,0.06498382023203363,0.0647739447242782,0.06452366871710957,0.06430011184634511,0.06415553799462455,0.06410906523102185,0.06407489409722528,0.06406090146658028,0.06398008585534386,0.06373351269912865,0.06323431023001008,0.06235791960585534,0.061191368908242144,0.05978138646626354,0.058208934603192146,0.05657489278578702,0.05490362573476337,0.0533775363748975,0.05204650032745773,0.05090860410409702,0.04991547534156396,0.04890498459397645,0.047897596443477845,0.04682673076055545,0.04565409717664203,0.04438413122205121,0.04298650162251928,0.041648541558885054,0.04046863943527328,0.03952407316363501,0.038852787102538464,0.0,0.0,0.0,0.0,0.0,0.0,0.0,0.0,0.0,0.0,0.0,0.0,0.0,0.0,0.0,0.0,0.0,0.0,0.0,0.0,0.0,0.0,0.0,0.0,0.0,0.0,0.0,0.0,0.0,0.0,0.0,0.0,0.0,0.0,0.0,0.0,0.0,0.0,0.0,0.0,0.0,0.0,0.0,0.0,0.0,0.0,0.0,0.0,0.0,0.0,0.0,0.0,0.0,0.0,0.0,0.0,0.0,0.0,0.0,0.0,0.0,0.0,0.0,0.0,0.0,0.0,0.0,0.0,0.0,0.0,0.0,0.0,0.0,0.0,0.0,0.0,0.0,0.0,0.0,0.0,0.0,0.0,0.0,0.0,0.0,0.0,0.0,0.0,0.0,0.0,0.0,0.0,0.0,0.0,0.0,0.0,0.0,0.0,0.0,0.0,0.0,0.0,0.0,0.0,0.0,0.0,0.0,0.0,0.0,0.0,0.0,0.0,0.0,0.0,0.0,0.0,0.0,0.0,0.0,0.0,0.0,0.0,0.0,0.0,0.0,0.0,0.0,0.0,0.0,0.0,0.0,0.0,0.0,0.0,0.0,0.0,0.0,0.0,0.0,0.0,0.0,0.0,0.0,0.0,0.0,0.0,0.0,0.0,0.0,0.0,0.0,0.0,0.0,0.0,0.0,0.0,0.0,0.0,0.0,0.0,0.0,0.0,0.0,0.0,0.0,0.0,0.0,0.0,0.0,0.0,0.0,0.0,0.0,0.0,0.0,0.0,0.0,0.0,0.0,0.0,0.0,0.0,0.0,0.0,0.0,0.0,0.0,0.0,0.0,0.0,0.0,0.0,0.0,0.0,0.0,0.0,0.0,0.0,0.0,0.0,0.0,0.0,0.0,0.0,0.0,0.0,0.0,0.0,0.0,0.0,0.0,0.0,0.0,0.0,0.0,0.0,0.0,0.0,0.0,0.0,0.0,0.0,0.0,0.0,0.0,0.0,0.0,0.0,0.0,0.0,0.0,0.0,0.0,0.0,0.0,0.0,0.0,0.0,0.0
0.04890498459397645,0.047897596443477845,0.04682673076055545,0.04565409717664203,0.04438413122205121,0.04298650162251928,0.041648541558885054,0.04046863943527328,0.03952407316363501,0.038852787102538464,0.03836842296323676,0.038116970291092026,0.0380151255431639,0.037964747626503564,0.0378823805823794,0.03765033488467053,0.03737052692632844,0.03709984737492024,0.03691911633586697,0.03691197406222034,0.037072567393173134,0.03751828016208319,0.03823486157194034,0.039158621332179525,0.040191386390593054,0.04112630365379861,0.04197353599359705,0.042669962026866716,0.043175895097561395,0.04347079871896577,0.04342588906344663,0.043178971481069514,0.04277064656545387,0.042250214358249376,0.04167363350819021,0.041066963923921375,0.04054666352084436,0.040153239114389984,0.03991809294848499,0.03987646829741465,0.04012767740124189,0.040697673229890936,0.04155751660400647,0.04263321969723183,0.0438197047072534,0.0449930847969996,0.046075261361343885,0.04695303720758797,0.047534437569614243,0.047762941117092166,0.0475560755863503,0.04702672621968975,0.04624983991293827,0.04531860294034515,0.04433015124801272,0.043300220362182236,0.04238764026103517,0.04166121276674702,0.04116207869390509,0.04089736137893327,0.04075772999792808,0.0,0.0,0.0,0.0,0.0,0.0,0.0,0.0,0.0,0.0,0.0,0.0,0.0,0.0,0.0,0.0,0.0,0.0,0.0,0.0,0.0,0.0,0.0,0.0,0.0,0.0,0.0,0.0,0.0,0.0,0.0,0.0,0.0,0.0,0.0,0.0,0.0,0.0,0.0,0.0,0.0,0.0,0.0,0.0,0.0,0.0,0.0,0.0,0.0,0.0,0.0,0.0,0.0,0.0,0.0,0.0,0.0,0.0,0.0,0.0,0.0,0.0,0.0,0.0,0.0,0.0,0.0,0.0,0.0,0.0,0.0,0.0,0.0,0.0,0.0,0.0,0.0,0.0,0.0,0.0,0.0,0.0,0.0,0.0,0.0,0.0,0.0,0.0,0.0,0.0,0.0,0.0,0.0,0.0,0.0,0.0,0.0,0.0,0.0,0.0,0.0,0.0,0.0,0.0,0.0,0.0,0.0,0.0,0.0,0.0,0.0,0.0,0.0,0.0,0.0,0.0,0.0,0.0,0.0,0.0,0.0,0.0,0.0,0.0,0.0,0.0,0.0,0.0,0.0,0.0,0.0,0.0,0.0,0.0,0.0,0.0,0.0,0.0,0.0,0.0,0.0,0.0,0.0,0.0,0.0,0.0,0.0,0.0,0.0,0.0,0.0,0.0,0.0,0.0,0.0,0.0,0.0,0.0,0.0,0.0,0.0,0.0,0.0,0.0,0.0,0.0,0.0,0.0,0.0,0.0,0.0,0.0,0.0,0.0,0.0,0.0,0.0,0.0,0.0,0.0,0.0,0.0,0.0,0.0,0.0,0.0,0.0,0.0,0.0,0.0,0.0,0.0,0.0,0.0,0.0,0.0,0.0,0.0,0.0,0.0,0.0,0.0,0.0,0.0,0.0,0.0,0.0,0.0,0.0,0.0,0.0,0.0,0.0,0.0,0.0,0.0,0.0,0.0,0.0,0.0,0.0,0.0,0.0,0.0,0.0,0.0,0.0,0.0,0.0,0.0,0.0,0.0,0.0,0.0,0.0,0.0,0.0,0.0,0.0
0.04702672621968975,0.04624983991293827,0.04531860294034515,0.04433015124801272,0.043300220362182236,0.04238764026103517,0.04166121276674702,0.04116207869390509,0.04089736137893327,0.04075772999792808,0.04076100962353522,0.040829368617677005,0.0408706553389976,0.040801946479240465,0.04050384238412559,0.040106221364869854,0.039787885436569165,0.03985281849684206,0.040706531579547664,0.04271628367964539,0.046371447465984074,0.05193667023468996,0.05940011817795416,0.06837405984685264,0.07796785086247839,0.08705290429373497,0.09413895825651696,0.09762530827801565,0.09604158811415764,0.08823836770874331,0.07386143981896642,0.05329458985178247,0.027781011789692757,-0.0006622952669713257,-0.029539631304860377,-0.05597958089548045,-0.07734552210203458,-0.09155135975270738,-0.0973661786481003,-0.09465479690906888,-0.08415542930081216,-0.06753219702477954,-0.04701687732911145,-0.025042162959761523,-0.003943568224813645,0.01457900093469443,0.0294298289564873,0.04023884545497085,0.047281852728577246,0.05122601017056418,0.05313452754539205,0.054001209422153106,0.054635316613618236,0.055550878248251216,0.05687007320994542,0.058601317557916956,0.06051620792872023,0.06233326437396631,0.06381990376792519,0.06478914915690448,0.065337077076107,0.0,0.0,0.0,0.0,0.0,0.0,0.0,0.0,0.0,0.0,0.0,0.0,0.0,0.0,0.0,0.0,0.0,0.0,0.0,0.0,0.0,0.0,0.0,0.0,0.0,0.0,0.0,0.0,0.0,0.0,0.0,0.0,0.0,0.0,0.0,0.0,0.0,0.0,0.0,0.0,0.0,0.0,0.0,0.0,0.0,0.0,0.0,0.0,0.0,0.0,0.0,0.0,0.0,0.0,0.0,0.0,0.0,0.0,0.0,0.0,0.0,0.0,0.0,0.0,0.0,0.0,0.0,0.0,0.0,0.0,0.0,0.0,0.0,0.0,0.0,0.0,0.0,0.0,0.0,0.0,0.0,0.0,0.0,0.0,0.0,0.0,0.0,0.0,0.0,0.0,0.0,0.0,0.0,0.0,0.0,0.0,0.0,0.0,0.0,0.0,0.0,0.0,0.0,0.0,0.0,0.0,0.0,0.0,0.0,0.0,0.0,0.0,0.0,0.0,0.0,0.0,0.0,0.0,0.0,0.0,0.0,0.0,0.0,0.0,0.0,0.0,0.0,0.0,0.0,0.0,0.0,0.0,0.0,0.0,0.0,0.0,0.0,0.0,0.0,0.0,0.0,0.0,0.0,0.0,0.0,0.0,0.0,0.0,0.0,0.0,0.0,0.0,0.0,0.0,0.0,0.0,0.0,0.0,0.0,0.0,0.0,0.0,0.0,0.0,0.0,0.0,0.0,0.0,0.0,0.0,0.0,0.0,0.0,0.0,0.0,0.0,0.0,0.0,0.0,0.0,0.0,0.0,0.0,0.0,0.0,0.0,0.0,0.0,0.0,0.0,0.0,0.0,0.0,0.0,0.0,0.0,0.0,0.0,0.0,0.0,0.0,0.0,0.0,0.0,0.0,0.0,0.0,0.0,0.0,0.0,0.0,0.0,0.0,0.0,0.0,0.0,0.0,0.0,0.0,0.0,0.0,0.0,0.0,0.0,0.0,0.0,0.0,0.0,0.0,0.0,0.0,0.0,0.0,0.0,0.0,0.0,0.0,0.0,0.0
0.054001209422153106,0.054635316613618236,0.055550878248251216,0.05687007320994542,0.058601317557916956,0.06051620792872023,0.06233326437396631,0.06381990376792519,0.06478914915690448,0.065337077076107,0.06560457799410847,0.06578287697868221,0.06604380205098383,0.06641641629389354,0.06696165693274837,0.06757335547796266,0.06807385099659144,0.06826770033404245,0.06793865846453821,0.06708695899103494,0.06575597429988,0.06408106970759878,0.06225540834054466,0.06041207865274764,0.058817392206385065,0.05758251063473139,0.05673732491516195,0.05624311634704688,0.055935733551928477,0.05583777811698867,0.0558607507195557,0.055930158151340184,0.0559962810727803,0.056000762152279476,0.05596390539787682,0.05590077807064594,0.0558268143206215,0.055749445798513715,0.05568264615392135,0.055557508149709806,0.05540074518494991,0.0552511308726707,0.05513757371961365,0.05504140723219326,0.05494676152089611,0.0548361791600379,0.054696749657881696,0.054525701640713596,0.054271333680616624,0.05402822025139866,0.053826445574965694,0.0536859226402098,0.05360820432776916,0.05350742522892345,0.05342240555508936,0.053299589875662766,0.0530753115837552,0.052690707014824735,0.05203804887761191,0.05119584667671585,0.05018977398876276,0.0,0.0,0.0,0.0,0.0,0.0,0.0,0.0,0.0,0.0,0.0,0.0,0.0,0.0,0.0,0.0,0.0,0.0,0.0,0.0,0.0,0.0,0.0,0.0,0.0,0.0,0.0,0.0,0.0,0.0,0.0,0.0,0.0,0.0,0.0,0.0,0.0,0.0,0.0,0.0,0.0,0.0,0.0,0.0,0.0,0.0,0.0,0.0,0.0,0.0,0.0,0.0,0.0,0.0,0.0,0.0,0.0,0.0,0.0,0.0,0.0,0.0,0.0,0.0,0.0,0.0,0.0,0.0,0.0,0.0,0.0,0.0,0.0,0.0,0.0,0.0,0.0,0.0,0.0,0.0,0.0,0.0,0.0,0.0,0.0,0.0,0.0,0.0,0.0,0.0,0.0,0.0,0.0,0.0,0.0,0.0,0.0,0.0,0.0,0.0,0.0,0.0,0.0,0.0,0.0,0.0,0.0,0.0,0.0,0.0,0.0,0.0,0.0,0.0,0.0,0.0,0.0,0.0,0.0,0.0,0.0,0.0,0.0,0.0,0.0,0.0,0.0,0.0,0.0,0.0,0.0,0.0,0.0,0.0,0.0,0.0,0.0,0.0,0.0,0.0,0.0,0.0,0.0,0.0,0.0,0.0,0.0,0.0,0.0,0.0,0.0,0.0,0.0,0.0,0.0,0.0,0.0,0.0,0.0,0.0,0.0,0.0,0.0,0.0,0.0,0.0,0.0,0.0,0.0,0.0,0.0,0.0,0.0,0.0,0.0,0.0,0.0,0.0,0.0,0.0,0.0,0.0,0.0,0.0,0.0,0.0,0.0,0.0,0.0,0.0,0.0,0.0,0.0,0.0,0.0,0.0,0.0,0.0,0.0,0.0,0.0,0.0,0.0,0.0,0.0,0.0,0.0,0.0,0.0,0.0,0.0,0.0,0.0,0.0,0.0,0.0,0.0,0.0,0.0,0.0,0.0,0.0,0.0,0.0,0.0,0.0,0.0,0.0,0.0,0.0,0.0,0.0,0.0,0.0,0.0,0.0,0.0,0.0,0.0
0.0536859226402098,0.05360820432776916,0.05350742522892345,0.05342240555508936,0.053299589875662766,0.0530753115837552,0.052690707014824735,0.05203804887761191,0.05119584667671585,0.05018977398876276,0.049068648206208786,0.04789781695631023,0.04667873325514756,0.04556472671024365,0.04459923975809984,0.04378881607249326,0.043104926897795715,0.042423002258313455,0.04177156976708902,0.04109497185174231,0.04035336651398002,0.03953740083571654,0.03860795500596769,0.03771122219433045,0.03692778599772123,0.03633080094205202,0.03596987477363736,0.03579762718331322,0.03587130778930609,0.03613871388411518,0.03652192656722583,0.03693680892887016,0.03726764528617552,0.03753412597209931,0.03771932513893638,0.03783186111658008,0.03790374308410297,0.03795548403944552,0.038083929163036066,0.03831040264835137,0.03862595130321022,0.03899668571478747,0.039336713233081314,0.03965589580194014,0.03990785905659682,0.04005747528696114,0.040089628345471966,0.039961732906394716,0.03976795619276152,0.03954119636734148,0.039307396907184385,0.03908205233616732,0.03880493685183731,0.03855910198285424,0.038351700438663275,0.038188212767325806,0.038074476326862686,0.037934063207116064,0.03786709457208938,0.037886724179079095,0.03799141118779686,0.0,0.0,0.0,0.0,0.0,0.0,0.0,0.0,0.0,0.0,0.0,0.0,0.0,0.0,0.0,0.0,0.0,0.0,0.0,0.0,0.0,0.0,0.0,0.0,0.0,0.0,0.0,0.0,0.0,0.0,0.0,0.0,0.0,0.0,0.0,0.0,0.0,0.0,0.0,0.0,0.0,0.0,0.0,0.0,0.0,0.0,0.0,0.0,0.0,0.0,0.0,0.0,0.0,0.0,0.0,0.0,0.0,0.0,0.0,0.0,0.0,0.0,0.0,0.0,0.0,0.0,0.0,0.0,0.0,0.0,0.0,0.0,0.0,0.0,0.0,0.0,0.0,0.0,0.0,0.0,0.0,0.0,0.0,0.0,0.0,0.0,0.0,0.0,0.0,0.0,0.0,0.0,0.0,0.0,0.0,0.0,0.0,0.0,0.0,0.0,0.0,0.0,0.0,0.0,0.0,0.0,0.0,0.0,0.0,0.0,0.0,0.0,0.0,0.0,0.0,0.0,0.0,0.0,0.0,0.0,0.0,0.0,0.0,0.0,0.0,0.0,0.0,0.0,0.0,0.0,0.0,0.0,0.0,0.0,0.0,0.0,0.0,0.0,0.0,0.0,0.0,0.0,0.0,0.0,0.0,0.0,0.0,0.0,0.0,0.0,0.0,0.0,0.0,0.0,0.0,0.0,0.0,0.0,0.0,0.0,0.0,0.0,0.0,0.0,0.0,0.0,0.0,0.0,0.0,0.0,0.0,0.0,0.0,0.0,0.0,0.0,0.0,0.0,0.0,0.0,0.0,0.0,0.0,0.0,0.0,0.0,0.0,0.0,0.0,0.0,0.0,0.0,0.0,0.0,0.0,0.0,0.0,0.0,0.0,0.0,0.0,0.0,0.0,0.0,0.0,0.0,0.0,0.0,0.0,0.0,0.0,0.0,0.0,0.0,0.0,0.0,0.0,0.0,0.0,0.0,0.0,0.0,0.0,0.0,0.0,0.0,0.0,0.0,0.0,0.0,0.0,0.0,0.0,0.0,0.0,0.0,0.0,0.0,0.0
0.03908205233616732,0.03880493685183731,0.03855910198285424,0.038351700438663275,0.038188212767325806,0.038074476326862686,0.037934063207116064,0.03786709457208938,0.037886724179079095,0.03799141118779686,0.038160349864877784,0.03827415029901687,0.0383720680980671,0.03841658818364327,0.0383783957387075,0.03824622340289288,0.03795691413718672,0.037637205530686106,0.03736248532162662,0.03720593009589324,0.03721030827514638,0.037284531572438155,0.037416012215808744,0.03744064476528616,0.037120037115883235,0.0361743931473999,0.034263322824631876,0.0312774195617811,0.027186565725161767,0.022142046017506023,0.01648128257461115,0.010618998366930034,0.005208242418865387,0.0008259631017764473,-0.002066649570424038,-0.003211827998177602,-0.0026796861137706883,-0.0006273083142387839,0.0025326610812724326,0.006289381667019212,0.010141289173112987,0.01362237276982594,0.016603637438129464,0.019097113547717537,0.021293822184926092,0.023494406344403578,0.025946112514835896,0.02897771855062298,0.03271357213178293,0.037103787690540145,0.041930650804846065,0.046783600973654124,0.0513496529982205,0.0552809522048912,0.05832505073875732,0.060366895265288545,0.06137153846278796,0.06157732680282222,0.06124486593700017,0.06065881527383112,0.060068944656949286,0.0,0.0,0.0,0.0,0.0,0.0,0.0,0.0,0.0,0.0,0.0,0.0,0.0,0.0,0.0,0.0,0.0,0.0,0.0,0.0,0.0,0.0,0.0,0.0,0.0,0.0,0.0,0.0,0.0,0.0,0.0,0.0,0.0,0.0,0.0,0.0,0.0,0.0,0.0,0.0,0.0,0.0,0.0,0.0,0.0,0.0,0.0,0.0,0.0,0.0,0.0,0.0,0.0,0.0,0.0,0.0,0.0,0.0,0.0,0.0,0.0,0.0,0.0,0.0,0.0,0.0,0.0,0.0,0.0,0.0,0.0,0.0,0.0,0.0,0.0,0.0,0.0,0.0,0.0,0.0,0.0,0.0,0.0,0.0,0.0,0.0,0.0,0.0,0.0,0.0,0.0,0.0,0.0,0.0,0.0,0.0,0.0,0.0,0.0,0.0,0.0,0.0,0.0,0.0,0.0,0.0,0.0,0.0,0.0,0.0,0.0,0.0,0.0,0.0,0.0,0.0,0.0,0.0,0.0,0.0,0.0,0.0,0.0,0.0,0.0,0.0,0.0,0.0,0.0,0.0,0.0,0.0,0.0,0.0,0.0,0.0,0.0,0.0,0.0,0.0,0.0,0.0,0.0,0.0,0.0,0.0,0.0,0.0,0.0,0.0,0.0,0.0,0.0,0.0,0.0,0.0,0.0,0.0,0.0,0.0,0.0,0.0,0.0,0.0,0.0,0.0,0.0,0.0,0.0,0.0,0.0,0.0,0.0,0.0,0.0,0.0,0.0,0.0,0.0,0.0,0.0,0.0,0.0,0.0,0.0,0.0,0.0,0.0,0.0,0.0,0.0,0.0,0.0,0.0,0.0,0.0,0.0,0.0,0.0,0.0,0.0,0.0,0.0,0.0,0.0,0.0,0.0,0.0,0.0,0.0,0.0,0.0,0.0,0.0,0.0,0.0,0.0,0.0,0.0,0.0,0.0,0.0,0.0,0.0,0.0,0.0,0.0,0.0,0.0,0.0,0.0,0.0,0.0,0.0,0.0,0.0,0.0,0.0,0.0
0.046783600973654124,0.0513496529982205,0.0552809522048912,0.05832505073875732,0.060366895265288545,0.06137153846278796,0.06157732680282222,0.06124486593700017,0.06065881527383112,0.060068944656949286,0.059579746604716884,0.05934021100150985,0.059346065260408074,0.05952483209932009,0.05977099404861003,0.0599171506835834,0.059967857066623546,0.059912280079772146,0.05977932871674355,0.05962004918213431,0.05942301765718707,0.05929593454982315,0.05926349873068273,0.059326326617429787,0.0594691043156586,0.05961128735039889,0.0598086493117746,0.06006840705140066,0.06039901147069856,0.060798186987577794,0.06119772601649156,0.061592469064016,0.06192314837305345,0.06212181828755068,0.062127269659496984,0.06187412007633466,0.06137977948160849,0.06069090443913293,0.05988420143459269,0.05904562039540698,0.058212184888095056,0.057469489432178264,0.05684843728314549,0.056352668595322265,0.05596397113131697,0.05560361080027966,0.0552902478622247,0.05500676562684201,0.05474243160557935,0.05448990725994404,0.054182421906636254,0.05388249818447541,0.05358983782352549,0.05330191320337349,0.05301584338857111,0.052658938093587064,0.05232174573598534,0.05201207361341818,0.05173106532043526,0.0514730529157325,0.05115747723388871,0.0,0.0,0.0,0.0,0.0,0.0,0.0,0.0,0.0,0.0,0.0,0.0,0.0,0.0,0.0,0.0,0.0,0.0,0.0,0.0,0.0,0.0,0.0,0.0,0.0,0.0,0.0,0.0,0.0,0.0,0.0,0.0,0.0,0.0,0.0,0.0,0.0,0.0,0.0,0.0,0.0,0.0,0.0,0.0,0.0,0.0,0.0,0.0,0.0,0.0,0.0,0.0,0.0,0.0,0.0,0.0,0.0,0.0,0.0,0.0,0.0,0.0,0.0,0.0,0.0,0.0,0.0,0.0,0.0,0.0,0.0,0.0,0.0,0.0,0.0,0.0,0.0,0.0,0.0,0.0,0.0,0.0,0.0,0.0,0.0,0.0,0.0,0.0,0.0,0.0,0.0,0.0,0.0,0.0,0.0,0.0,0.0,0.0,0.0,0.0,0.0,0.0,0.0,0.0,0.0,0.0,0.0,0.0,0.0,0.0,0.0,0.0,0.0,0.0,0.0,0.0,0.0,0.0,0.0,0.0,0.0,0.0,0.0,0.0,0.0,0.0,0.0,0.0,0.0,0.0,0.0,0.0,0.0,0.0,0.0,0.0,0.0,0.0,0.0,0.0,0.0,0.0,0.0,0.0,0.0,0.0,0.0,0.0,0.0,0.0,0.0,0.0,0.0,0.0,0.0,0.0,0.0,0.0,0.0,0.0,0.0,0.0,0.0,0.0,0.0,0.0,0.0,0.0,0.0,0.0,0.0,0.0,0.0,0.0,0.0,0.0,0.0,0.0,0.0,0.0,0.0,0.0,0.0,0.0,0.0,0.0,0.0,0.0,0.0,0.0,0.0,0.0,0.0,0.0,0.0,0.0,0.0,0.0,0.0,0.0,0.0,0.0,0.0,0.0,0.0,0.0,0.0,0.0,0.0,0.0,0.0,0.0,0.0,0.0,0.0,0.0,0.0,0.0,0.0,0.0,0.0,0.0,0.0,0.0,0.0,0.0,0.0,0.0,0.0,0.0,0.0,0.0,0.0,0.0,0.0,0.0,0.0,0.0,0.0
0.05388249818447541,0.05358983782352549,0.05330191320337349,0.05301584338857111,0.052658938093587064,0.05232174573598534,0.05201207361341818,0.05173106532043526,0.0514730529157325,0.05115747723388871,0.05085698853940226,0.05056078395916573,0.05025530662288165,0.049930262442893884,0.049516723072222234,0.049108736348926166,0.04872690088940764,0.04838832657986351,0.04810080852952735,0.047790429824728635,0.047513053150167024,0.04721986382258927,0.04683571018702056,0.046271354616160804,0.0453765166490232,0.044174757090618993,0.04265243363711367,0.04084633071787449,0.038849625134959355,0.036739904912870366,0.034778728039135946,0.03314956061886033,0.032002311686120964,0.031427895653757906,0.0313755969926611,0.031872505998145034,0.032797427512633745,0.033982975518966535,0.035249917408373306,0.036372375112173734,0.03733003633736591,0.03808275729678961,0.03864478311278241,0.039071939162988706,0.0393700136603769,0.039702045142616514,0.0401298991307294,0.04067608639274695,0.041321165365974355,0.04193648428048377,0.04253596353106075,0.043048908480143554,0.043409866498936314,0.04357039156896001,0.043429743314947825,0.04308465658849217,0.042579700039440116,0.041976041043062795,0.0413411394894306,0.04069159186632499,0.040136316508168395,0.0,0.0,0.0,0.0,0.0,0.0,0.0,0.0,0.0,0.0,0.0,0.0,0.0,0.0,0.0,0.0,0.0,0.0,0.0,0.0,0.0,0.0,0.0,0.0,0.0,0.0,0.0,0.0,0.0,0.0,0.0,0.0,0.0,0.0,0.0,0.0,0.0,0.0,0.0,0.0,0.0,0.0,0.0,0.0,0.0,0.0,0.0,0.0,0.0,0.0,0.0,0.0,0.0,0.0,0.0,0.0,0.0,0.0,0.0,0.0,0.0,0.0,0.0,0.0,0.0,0.0,0.0,0.0,0.0,0.0,0.0,0.0,0.0,0.0,0.0,0.0,0.0,0.0,0.0,0.0,0.0,0.0,0.0,0.0,0.0,0.0,0.0,0.0,0.0,0.0,0.0,0.0,0.0,0.0,0.0,0.0,0.0,0.0,0.0,0.0,0.0,0.0,0.0,0.0,0.0,0.0,0.0,0.0,0.0,0.0,0.0,0.0,0.0,0.0,0.0,0.0,0.0,0.0,0.0,0.0,0.0,0.0,0.0,0.0,0.0,0.0,0.0,0.0,0.0,0.0,0.0,0.0,0.0,0.0,0.0,0.0,0.0,0.0,0.0,0.0,0.0,0.0,0.0,0.0,0.0,0.0,0.0,0.0,0.0,0.0,0.0,0.0,0.0,0.0,0.0,0.0,0.0,0.0,0.0,0.0,0.0,0.0,0.0,0.0,0.0,0.0,0.0,0.0,0.0,0.0,0.0,0.0,0.0,0.0,0.0,0.0,0.0,0.0,0.0,0.0,0.0,0.0,0.0,0.0,0.0,0.0,0.0,0.0,0.0,0.0,0.0,0.0,0.0,0.0,0.0,0.0,0.0,0.0,0.0,0.0,0.0,0.0,0.0,0.0,0.0,0.0,0.0,0.0,0.0,0.0,0.0,0.0,0.0,0.0,0.0,0.0,0.0,0.0,0.0,0.0,0.0,0.0,0.0,0.0,0.0,0.0,0.0,0.0,0.0,0.0,0.0,0.0,0.0,0.0,0.0,0.0,0.0,0.0,0.0
0.043048908480143554,0.043409866498936314,0.04357039156896001,0.043429743314947825,0.04308465658849217,0.042579700039440116,0.041976041043062795,0.0413411394894306,0.04069159186632499,0.040136316508168395,0.039695923891908666,0.03936286853821301,0.03911188740990119,0.03889882262059737,0.03873183003068204,0.038576901373996914,0.038405516313781606,0.038203474309040995,0.0379429562234566,0.037697451225934896,0.03749402081295349,0.03735539737705303,0.03729506120818081,0.037261855955662795,0.03730946274897775,0.037416157094605086,0.037548719310056475,0.03767267578862072,0.03769928453907666,0.0377020033874254,0.03772010816115552,0.03781381679858655,0.03805029036906063,0.038406945233025465,0.0389947691024885,0.03982462600529919,0.040860955287917375,0.042021827857414706,0.04311063027669317,0.044095107839369097,0.04490474244947538,0.04552205273213072,0.04599336534576879,0.04633844406118512,0.046794176048027394,0.04752949728593326,0.04866474075933911,0.05021634406498961,0.05197069215418344,0.05372671032736014,0.05506706147772284,0.05547990987853197,0.05443932278421043,0.05142558300394632,0.04628380754171258,0.03906461548337713,0.030135939580782,0.02016501046158361,0.009964232037294535,0.0006062168908431878,-0.006961127167188806,0.0,0.0,0.0,0.0,0.0,0.0,0.0,0.0,0.0,0.0,0.0,0.0,0.0,0.0,0.0,0.0,0.0,0.0,0.0,0.0,0.0,0.0,0.0,0.0,0.0,0.0,0.0,0.0,0.0,0.0,0.0,0.0,0.0,0.0,0.0,0.0,0.0,0.0,0.0,0.0,0.0,0.0,0.0,0.0,0.0,0.0,0.0,0.0,0.0,0.0,0.0,0.0,0.0,0.0,0.0,0.0,0.0,0.0,0.0,0.0,0.0,0.0,0.0,0.0,0.0,0.0,0.0,0.0,0.0,0.0,0.0,0.0,0.0,0.0,0.0,0.0,0.0,0.0,0.0,0.0,0.0,0.0,0.0,0.0,0.0,0.0,0.0,0.0,0.0,0.0,0.0,0.0,0.0,0.0,0.0,0.0,0.0,0.0,0.0,0.0,0.0,0.0,0.0,0.0,0.0,0.0,0.0,0.0,0.0,0.0,0.0,0.0,0.0,0.0,0.0,0.0,0.0,0.0,0.0,0.0,0.0,0.0,0.0,0.0,0.0,0.0,0.0,0.0,0.0,0.0,0.0,0.0,0.0,0.0,0.0,0.0,0.0,0.0,0.0,0.0,0.0,0.0,0.0,0.0,0.0,0.0,0.0,0.0,0.0,0.0,0.0,0.0,0.0,0.0,0.0,0.0,0.0,0.0,0.0,0.0,0.0,0.0,0.0,0.0,0.0,0.0,0.0,0.0,0.0,0.0,0.0,0.0,0.0,0.0,0.0,0.0,0.0,0.0,0.0,0.0,0.0,0.0,0.0,0.0,0.0,0.0,0.0,0.0,0.0,0.0,0.0,0.0,0.0,0.0,0.0,0.0,0.0,0.0,0.0,0.0,0.0,0.0,0.0,0.0,0.0,0.0,0.0,0.0,0.0,0.0,0.0,0.0,0.0,0.0,0.0,0.0,0.0,0.0,0.0,0.0,0.0,0.0,0.0,0.0,0.0,0.0,0.0,0.0,0.0,0.0,0.0,0.0,0.0,0.0,0.0,0.0,0.0,0.0,0.0
0.05547990987853197,0.05443932278421043,0.05142558300394632,0.04628380754171258,0.03906461548337713,0.030135939580782,0.02016501046158361,0.009964232037294535,0.0006062168908431878,-0.006961127167188806,-0.01200084283188151,-0.014109301861043212,-0.013351137055091913,-0.010018903186069801,-0.0047678317883284764,0.0015832111962237089,0.008208404939283947,0.014347584562114605,0.019645749069703195,0.02397834652856839,0.027492698289235843,0.030526111739611103,0.033414477507181704,0.036609419412521244,0.04035835228241744,0.044712838345937804,0.049522051441729775,0.05440685607071171,0.05905498098809702,0.06310670474452779,0.06629886044240235,0.06851799114384846,0.06975284548063278,0.07026465194027233,0.07033836994251227,0.07026754266129875,0.07028445731347267,0.07043874825200049,0.0708123511828981,0.0713132190823893,0.0717832219520792,0.0720509234830969,0.07189789142687039,0.07136067326526022,0.07048757452649992,0.06939776244960447,0.06824411814218188,0.0670836486001945,0.06611032343595077,0.06537076960865178,0.0648401258135371,0.06443731280126686,0.0639672285638351,0.06342834035175872,0.062769147942938,0.06198347839563188,0.061108913316831256,0.06014916420780717,0.059250570925211334,0.05851014534411875,0.058005213366641,0.0,0.0,0.0,0.0,0.0,0.0,0.0,0.0,0.0,0.0,0.0,0.0,0.0,0.0,0.0,0.0,0.0,0.0,0.0,0.0,0.0,0.0,0.0,0.0,0.0,0.0,0.0,0.0,0.0,0.0,0.0,0.0,0.0,0.0,0.0,0.0,0.0,0.0,0.0,0.0,0.0,0.0,0.0,0.0,0.0,0.0,0.0,0.0,0.0,0.0,0.0,0.0,0.0,0.0,0.0,0.0,0.0,0.0,0.0,0.0,0.0,0.0,0.0,0.0,0.0,0.0,0.0,0.0,0.0,0.0,0.0,0.0,0.0,0.0,0.0,0.0,0.0,0.0,0.0,0.0,0.0,0.0,0.0,0.0,0.0,0.0,0.0,0.0,0.0,0.0,0.0,0.0,0.0,0.0,0.0,0.0,0.0,0.0,0.0,0.0,0.0,0.0,0.0,0.0,0.0,0.0,0.0,0.0,0.0,0.0,0.0,0.0,0.0,0.0,0.0,0.0,0.0,0.0,0.0,0.0,0.0,0.0,0.0,0.0,0.0,0.0,0.0,0.0,0.0,0.0,0.0,0.0,0.0,0.0,0.0,0.0,0.0,0.0,0.0,0.0,0.0,0.0,0.0,0.0,0.0,0.0,0.0,0.0,0.0,0.0,0.0,0.0,0.0,0.0,0.0,0.0,0.0,0.0,0.0,0.0,0.0,0.0,0.0,0.0,0.0,0.0,0.0,0.0,0.0,0.0,0.0,0.0,0.0,0.0,0.0,0.0,0.0,0.0,0.0,0.0,0.0,0.0,0.0,0.0,0.0,0.0,0.0,0.0,0.0,0.0,0.0,0.0,0.0,0.0,0.0,0.0,0.0,0.0,0.0,0.0,0.0,0.0,0.0,0.0,0.0,0.0,0.0,0.0,0.0,0.0,0.0,0.0,0.0,0.0,0.0,0.0,0.0,0.0,0.0,0.0,0.0,0.0,0.0,0.0,0.0,0.0,0.0,0.0,0.0,0.0,0.0,0.0,0.0,0.0,0.0,0.0,0.0,0.0,0.0
0.06443731280126686,0.0639672285638351,0.06342834035175872,0.062769147942938,0.06198347839563188,0.061108913316831256,0.06014916420780717,0.059250570925211334,0.05851014534411875,0.058005213366641,0.057780513832395665,0.05780170276324862,0.058075057843825315,0.058578936684338695,0.05927666139373306,0.06010922872387893,0.06093157073625649,0.06168482959393586,0.06226118133299388,0.06254822349122818,0.062437943615362194,0.06176664123443728,0.06056046021181368,0.058843848861032666,0.056708278659825175,0.054310421470785956,0.051776599444546635,0.04944801541032627,0.04759302297404546,0.04644848635063717,0.046182899326209725,0.04677285289686522,0.048291742304521254,0.050603340311980605,0.053476415256073606,0.05661898098662689,0.05962315595708042,0.062326435619027676,0.06452852088342928,0.0661131422295839,0.06705506264704406,0.06730905414118377,0.06711874882322191,0.06665540956635616,0.0660874941249451,0.06555128151487531,0.065035296761404,0.06467456645523072,0.06444473626321348,0.06427046197250988,0.06404750038270655,0.06358314212016085,0.06290049795392369,0.061974062956662905,0.06082828474574964,0.05953735154241724,0.05812718721572643,0.05683842218984991,0.05582014845719327,0.05519257298714881,0.05502720270212792,0.0,0.0,0.0,0.0,0.0,0.0,0.0,0.0,0.0,0.0,0.0,0.0,0.0,0.0,0.0,0.0,0.0,0.0,0.0,0.0,0.0,0.0,0.0,0.0,0.0,0.0,0.0,0.0,0.0,0.0,0.0,0.0,0.0,0.0,0.0,0.0,0.0,0.0,0.0,0.0,0.0,0.0,0.0,0.0,0.0,0.0,0.0,0.0,0.0,0.0,0.0,0.0,0.0,0.0,0.0,0.0,0.0,0.0,0.0,0.0,0.0,0.0,0.0,0.0,0.0,0.0,0.0,0.0,0.0,0.0,0.0,0.0,0.0,0.0,0.0,0.0,0.0,0.0,0.0,0.0,0.0,0.0,0.0,0.0,0.0,0.0,0.0,0.0,0.0,0.0,0.0,0.0,0.0,0.0,0.0,0.0,0.0,0.0,0.0,0.0,0.0,0.0,0.0,0.0,0.0,0.0,0.0,0.0,0.0,0.0,0.0,0.0,0.0,0.0,0.0,0.0,0.0,0.0,0.0,0.0,0.0,0.0,0.0,0.0,0.0,0.0,0.0,0.0,0.0,0.0,0.0,0.0,0.0,0.0,0.0,0.0,0.0,0.0,0.0,0.0,0.0,0.0,0.0,0.0,0.0,0.0,0.0,0.0,0.0,0.0,0.0,0.0,0.0,0.0,0.0,0.0,0.0,0.0,0.0,0.0,0.0,0.0,0.0,0.0,0.0,0.0,0.0,0.0,0.0,0.0,0.0,0.0,0.0,0.0,0.0,0.0,0.0,0.0,0.0,0.0,0.0,0.0,0.0,0.0,0.0,0.0,0.0,0.0,0.0,0.0,0.0,0.0,0.0,0.0,0.0,0.0,0.0,0.0,0.0,0.0,0.0,0.0,0.0,0.0,0.0,0.0,0.0,0.0,0.0,0.0,0.0,0.0,0.0,0.0,0.0,0.0,0.0,0.0,0.0,0.0,0.0,0.0,0.0,0.0,0.0,0.0,0.0,0.0,0.0,0.0,0.0,0.0,0.0,0.0,0.0,0.0,0.0,0.0,0.0
0.06358314212016085,0.06290049795392369,0.061974062956662905,0.06082828474574964,0.05953735154241724,0.05812718721572643,0.05683842218984991,0.05582014845719327,0.05519257298714881,0.05502720270212792,0.0552465552367641,0.055907833178753766,0.05693026180055798,0.058195747920549386,0.05956775413487688,0.06082425499068972,0.06195516298624289,0.06289458779356939,0.06361168536687485,0.06410830556762584,0.06432606271604817,0.06440993388033268,0.06441749705220327,0.06439571746806987,0.06437615693622806,0.06429622979983445,0.06425947056758993,0.06428793107714315,0.06440624820498536,0.06464400830483029,0.06495924551144032,0.06546574400625298,0.0661900301855774,0.06712701854851236,0.06822853216709925,0.0693256778167189,0.07037586164906942,0.07123385703684815,0.07175310206235679,0.07181305602936822,0.07126882027815737,0.07021097216737177,0.06870729637379668,0.06687891522936806,0.06488522041491432,0.06283180671579598,0.060984132102292844,0.059494141551829555,0.058467412205793746,0.05795738480046042,0.05789680700828598,0.058329066305297515,0.05917020287821424,0.06029786656815612,0.061565835440902335,0.0627526745702206,0.06380186101497173,0.06460101936244407,0.06507071497125519,0.06517428608134423,0.06485379594678294,0.0,0.0,0.0,0.0,0.0,0.0,0.0,0.0,0.0,0.0,0.0,0.0,0.0,0.0,0.0,0.0,0.0,0.0,0.0,0.0,0.0,0.0,0.0,0.0,0.0,0.0,0.0,0.0,0.0,0.0,0.0,0.0,0.0,0.0,0.0,0.0,0.0,0.0,0.0,0.0,0.0,0.0,0.0,0.0,0.0,0.0,0.0,0.0,0.0,0.0,0.0,0.0,0.0,0.0,0.0,0.0,0.0,0.0,0.0,0.0,0.0,0.0,0.0,0.0,0.0,0.0,0.0,0.0,0.0,0.0,0.0,0.0,0.0,0.0,0.0,0.0,0.0,0.0,0.0,0.0,0.0,0.0,0.0,0.0,0.0,0.0,0.0,0.0,0.0,0.0,0.0,0.0,0.0,0.0,0.0,0.0,0.0,0.0,0.0,0.0,0.0,0.0,0.0,0.0,0.0,0.0,0.0,0.0,0.0,0.0,0.0,0.0,0.0,0.0,0.0,0.0,0.0,0.0,0.0,0.0,0.0,0.0,0.0,0.0,0.0,0.0,0.0,0.0,0.0,0.0,0.0,0.0,0.0,0.0,0.0,0.0,0.0,0.0,0.0,0.0,0.0,0.0,0.0,0.0,0.0,0.0,0.0,0.0,0.0,0.0,0.0,0.0,0.0,0.0,0.0,0.0,0.0,0.0,0.0,0.0,0.0,0.0,0.0,0.0,0.0,0.0,0.0,0.0,0.0,0.0,0.0,0.0,0.0,0.0,0.0,0.0,0.0,0.0,0.0,0.0,0.0,0.0,0.0,0.0,0.0,0.0,0.0,0.0,0.0,0.0,0.0,0.0,0.0,0.0,0.0,0.0,0.0,0.0,0.0,0.0,0.0,0.0,0.0,0.0,0.0,0.0,0.0,0.0,0.0,0.0,0.0,0.0,0.0,0.0,0.0,0.0,0.0,0.0,0.0,0.0,0.0,0.0,0.0,0.0,0.0,0.0,0.0,0.0,0.0,0.0,0.0,0.0,0.0,0.0,0.0,0.0,0.0,0.0,0.0
0.058329066305297515,0.05917020287821424,0.06029786656815612,0.061565835440902335,0.0627526745702206,0.06380186101497173,0.06460101936244407,0.06507071497125519,0.06517428608134423,0.06485379594678294,0.06424403232015805,0.06343199527606616,0.06251269027146736,0.06157351599834415,0.060613980309364546,0.05976346750458772,0.05904414182393122,0.058452980773892715,0.05797274591534407,0.05751342048957346,0.05714844546362292,0.05687018661039597,0.056666995571553254,0.05652006282868839,0.056326737635108676,0.05613864780435816,0.05590734803769156,0.05557134237920164,0.055067379742032706,0.05426734148775768,0.05324275269510462,0.05200966642756857,0.05061511648352911,0.04913378336072261,0.04758666365242935,0.04616024215680259,0.044933481964580226,0.04394724508603267,0.04320018697941251,0.04258840190797642,0.04213587923159072,0.04176470805918779,0.04139813212883245,0.04098278685473201,0.04043967292884138,0.03988191228888359,0.03937090710592135,0.03897759148230596,0.0387653867300515,0.03871107795063226,0.03890372626578778,0.03931745984794274,0.039889906058073236,0.040537008748749874,0.041102332472539096,0.0415993230330535,0.0419806399127246,0.042219429750694246,0.04230863076744826,0.042182326654835296,0.04195215892946413,0.0,0.0,0.0,0.0,0.0,0.0,0.0,0.0,0.0,0.0,0.0,0.0,0.0,0.0,0.0,0.0,0.0,0.0,0.0,0.0,0.0,0.0,0.0,0.0,0.0,0.0,0.0,0.0,0.0,0.0,0.0,0.0,0.0,0.0,0.0,0.0,0.0,0.0,0.0,0.0,0.0,0.0,0.0,0.0,0.0,0.0,0.0,0.0,0.0,0.0,0.0,0.0,0.0,0.0,0.0,0.0,0.0,0.0,0.0,0.0,0.0,0.0,0.0,0.0,0.0,0.0,0.0,0.0,0.0,0.0,0.0,0.0,0.0,0.0,0.0,0.0,0.0,0.0,0.0,0.0,0.0,0.0,0.0,0.0,0.0,0.0,0.0,0.0,0.0,0.0,0.0,0.0,0.0,0.0,0.0,0.0,0.0,0.0,0.0,0.0,0.0,0.0,0.0,0.0,0.0,0.0,0.0,0.0,0.0,0.0,0.0,0.0,0.0,0.0,0.0,0.0,0.0,0.0,0.0,0.0,0.0,0.0,0.0,0.0,0.0,0.0,0.0,0.0,0.0,0.0,0.0,0.0,0.0,0.0,0.0,0.0,0.0,0.0,0.0,0.0,0.0,0.0,0.0,0.0,0.0,0.0,0.0,0.0,0.0,0.0,0.0,0.0,0.0,0.0,0.0,0.0,0.0,0.0,0.0,0.0,0.0,0.0,0.0,0.0,0.0,0.0,0.0,0.0,0.0,0.0,0.0,0.0,0.0,0.0,0.0,0.0,0.0,0.0,0.0,0.0,0.0,0.0,0.0,0.0,0.0,0.0,0.0,0.0,0.0,0.0,0.0,0.0,0.0,0.0,0.0,0.0,0.0,0.0,0.0,0.0,0.0,0.0,0.0,0.0,0.0,0.0,0.0,0.0,0.0,0.0,0.0,0.0,0.0,0.0,0.0,0.0,0.0,0.0,0.0,0.0,0.0,0.0,0.0,0.0,0.0,0.0,0.0,0.0,0.0,0.0,0.0,0.0,0.0,0.0,0.0,0.0,0.0,0.0,0.0
0.03931745984794274,0.039889906058073236,0.040537008748749874,0.041102332472539096,0.0415993230330535,0.0419806399127246,0.042219429750694246,0.04230863076744826,0.042182326654835296,0.04195215892946413,0.04164405552752669,0.04127907196481877,0.04087720074097039,0.040366065331019975,0.039897391665359515,0.03954102146967252,0.03936974807857677,0.03944577071449252,0.039685358584250034,0.040228129000488395,0.041076716456774826,0.042194615188757494,0.04350191294865959,0.04484159544849143,0.04610656092199834,0.04710286517471462,0.047636951993729575,0.047558055182826665,0.046849666463523384,0.04551079382486721,0.043603480360357195,0.04125550899882946,0.038654864797560036,0.03602961436452723,0.033653664287494604,0.03173343989086915,0.030412209222211745,0.029751674412293396,0.029662610788321685,0.030117338033231748,0.03096673613724431,0.032032320083343,0.03313993691061668,0.03407664886351009,0.03484981184581262,0.03546842215992189,0.03599745836671761,0.036528199408939976,0.03705499051360974,0.03771011929218892,0.03849594935512461,0.039355228532513754,0.040192031668263385,0.04083402507613947,0.04134209931602028,0.04182408403141124,0.04253295828919735,0.04385586392758678,0.04618242278726525,0.050045378883209,0.05576373855637055,0.0,0.0,0.0,0.0,0.0,0.0,0.0,0.0,0.0,0.0,0.0,0.0,0.0,0.0,0.0,0.0,0.0,0.0,0.0,0.0,0.0,0.0,0.0,0.0,0.0,0.0,0.0,0.0,0.0,0.0,0.0,0.0,0.0,0.0,0.0,0.0,0.0,0.0,0.0,0.0,0.0,0.0,0.0,0.0,0.0,0.0,0.0,0.0,0.0,0.0,0.0,0.0,0.0,0.0,0.0,0.0,0.0,0.0,0.0,0.0,0.0,0.0,0.0,0.0,0.0,0.0,0.0,0.0,0.0,0.0,0.0,0.0,0.0,0.0,0.0,0.0,0.0,0.0,0.0,0.0,0.0,0.0,0.0,0.0,0.0,0.0,0.0,0.0,0.0,0.0,0.0,0.0,0.0,0.0,0.0,0.0,0.0,0.0,0.0,0.0,0.0,0.0,0.0,0.0,0.0,0.0,0.0,0.0,0.0,0.0,0.0,0.0,0.0,0.0,0.0,0.0,0.0,0.0,0.0,0.0,0.0,0.0,0.0,0.0,0.0,0.0,0.0,0.0,0.0,0.0,0.0,0.0,0.0,0.0,0.0,0.0,0.0,0.0,0.0,0.0,0.0,0.0,0.0,0.0,0.0,0.0,0.0,0.0,0.0,0.0,0.0,0.0,0.0,0.0,0.0,0.0,0.0,0.0,0.0,0.0,0.0,0.0,0.0,0.0,0.0,0.0,0.0,0.0,0.0,0.0,0.0,0.0,0.0,0.0,0.0,0.0,0.0,0.0,0.0,0.0,0.0,0.0,0.0,0.0,0.0,0.0,0.0,0.0,0.0,0.0,0.0,0.0,0.0,0.0,0.0,0.0,0.0,0.0,0.0,0.0,0.0,0.0,0.0,0.0,0.0,0.0,0.0,0.0,0.0,0.0,0.0,0.0,0.0,0.0,0.0,0.0,0.0,0.0,0.0,0.0,0.0,0.0,0.0,0.0,0.0,0.0,0.0,0.0,0.0,0.0,0.0,0.0,0.0,0.0,0.0,0.0,0.0,0.0,0.0
0.039355228532513754,0.040192031668263385,0.04083402507613947,0.04134209931602028,0.04182408403141124,0.04253295828919735,0.04385586392758678,0.04618242278726525,0.050045378883209,0.05576373855637055,0.06337619775368689,0.07252909168625309,0.08234844202727343,0.09168586404860862,0.09901457989542642,0.10268953403968918,0.10120231944491939,0.09339126711193713,0.07889753688952987,0.05812961698925673,0.032370239406134683,0.0036789904329708315,-0.0254149020424336,-0.05202503754458376,-0.07352470392138874,-0.08785950495872091,-0.09384433857897773,-0.09139989796529595,-0.08129379437451043,-0.06520956521017414,-0.0453721950501493,-0.024178237629670817,-0.0038989584644827397,0.013848481069623832,0.028068589860486985,0.038493186684321036,0.045487863319636106,0.04979192946103338,0.0524793507739056,0.054527573978091236,0.05667943361651551,0.05933024014343915,0.06244218148400066,0.06581711944992427,0.06902389963230819,0.0715985916165392,0.0731726169672422,0.07349380947689024,0.07266893746122152,0.07093932962846779,0.06867159560867854,0.06626495794594388,0.06399114729898046,0.06214885519688737,0.06082074219136077,0.05994544367352112,0.059357298924645543,0.05877219488870123,0.058080753529267164,0.057170991013483774,0.05602006789115414,0.0,0.0,0.0,0.0,0.0,0.0,0.0,0.0,0.0,0.0,0.0,0.0,0.0,0.0,0.0,0.0,0.0,0.0,0.0,0.0,0.0,0.0,0.0,0.0,0.0,0.0,0.0,0.0,0.0,0.0,0.0,0.0,0.0,0.0,0.0,0.0,0.0,0.0,0.0,0.0,0.0,0.0,0.0,0.0,0.0,0.0,0.0,0.0,0.0,0.0,0.0,0.0,0.0,0.0,0.0,0.0,0.0,0.0,0.0,0.0,0.0,0.0,0.0,0.0,0.0,0.0,0.0,0.0,0.0,0.0,0.0,0.0,0.0,0.0,0.0,0.0,0.0,0.0,0.0,0.0,0.0,0.0,0.0,0.0,0.0,0.0,0.0,0.0,0.0,0.0,0.0,0.0,0.0,0.0,0.0,0.0,0.0,0.0,0.0,0.0,0.0,0.0,0.0,0.0,0.0,0.0,0.0,0.0,0.0,0.0,0.0,0.0,0.0,0.0,0.0,0.0,0.0,0.0,0.0,0.0,0.0,0.0,0.0,0.0,0.0,0.0,0.0,0.0,0.0,0.0,0.0,0.0,0.0,0.0,0.0,0.0,0.0,0.0,0.0,0.0,0.0,0.0,0.0,0.0,0.0,0.0,0.0,0.0,0.0,0.0,0.0,0.0,0.0,0.0,0.0,0.0,0.0,0.0,0.0,0.0,0.0,0.0,0.0,0.0,0.0,0.0,0.0,0.0,0.0,0.0,0.0,0.0,0.0,0.0,0.0,0.0,0.0,0.0,0.0,0.0,0.0,0.0,0.0,0.0,0.0,0.0,0.0,0.0,0.0,0.0,0.0,0.0,0.0,0.0,0.0,0.0,0.0,0.0,0.0,0.0,0.0,0.0,0.0,0.0,0.0,0.0,0.0,0.0,0.0,0.0,0.0,0.0,0.0,0.0,0.0,0.0,0.0,0.0,0.0,0.0,0.0,0.0,0.0,0.0,0.0,0.0,0.0,0.0,0.0,0.0,0.0,0.0,0.0,0.0,0.0,0.0,0.0,0.0,0.0
0.06626495794594388,0.06399114729898046,0.06214885519688737,0.06082074219136077,0.05994544367352112,0.059357298924645543,0.05877219488870123,0.058080753529267164,0.057170991013483774,0.05602006789115414,0.05469161259746298,0.05322812991169045,0.05189359808577693,0.05084597107756529,0.05020255649117665,0.05002592627028042,0.05022610976055297,0.0508895191655995,0.051932053640617266,0.05323282644979337,0.054653846954508985,0.05601146613888448,0.05722101430022093,0.058199342443435075,0.05889395093492044,0.059281767638737534,0.05937290754153497,0.05915008944438102,0.05870787462963922,0.05816527983267806,0.0576307088501894,0.05713942794233515,0.05673268104152561,0.056417425596754577,0.05617733023610615,0.05597965006164127,0.05570817150231463,0.0554119079332539,0.05507837749837672,0.05470700198196647,0.05430855528200024,0.05372333265888635,0.053172066676295905,0.0527556238546627,0.05256353549633755,0.0526374605023592,0.052662125380386574,0.052834360001210924,0.05313713579647017,0.053552846214802614,0.05405843162368693,0.05445645245642354,0.054852170075807546,0.055201086125666765,0.055436830177598644,0.055479402745014665,0.055223908486511965,0.05467219898665152,0.053806826054691906,0.052664384654151554,0.051344474007690336,0.0,0.0,0.0,0.0,0.0,0.0,0.0,0.0,0.0,0.0,0.0,0.0,0.0,0.0,0.0,0.0,0.0,0.0,0.0,0.0,0.0,0.0,0.0,0.0,0.0,0.0,0.0,0.0,0.0,0.0,0.0,0.0,0.0,0.0,0.0,0.0,0.0,0.0,0.0,0.0,0.0,0.0,0.0,0.0,0.0,0.0,0.0,0.0,0.0,0.0,0.0,0.0,0.0,0.0,0.0,0.0,0.0,0.0,0.0,0.0,0.0,0.0,0.0,0.0,0.0,0.0,0.0,0.0,0.0,0.0,0.0,0.0,0.0,0.0,0.0,0.0,0.0,0.0,0.0,0.0,0.0,0.0,0.0,0.0,0.0,0.0,0.0,0.0,0.0,0.0,0.0,0.0,0.0,0.0,0.0,0.0,0.0,0.0,0.0,0.0,0.0,0.0,0.0,0.0,0.0,0.0,0.0,0.0,0.0,0.0,0.0,0.0,0.0,0.0,0.0,0.0,0.0,0.0,0.0,0.0,0.0,0.0,0.0,0.0,0.0,0.0,0.0,0.0,0.0,0.0,0.0,0.0,0.0,0.0,0.0,0.0,0.0,0.0,0.0,0.0,0.0,0.0,0.0,0.0,0.0,0.0,0.0,0.0,0.0,0.0,0.0,0.0,0.0,0.0,0.0,0.0,0.0,0.0,0.0,0.0,0.0,0.0,0.0,0.0,0.0,0.0,0.0,0.0,0.0,0.0,0.0,0.0,0.0,0.0,0.0,0.0,0.0,0.0,0.0,0.0,0.0,0.0,0.0,0.0,0.0,0.0,0.0,0.0,0.0,0.0,0.0,0.0,0.0,0.0,0.0,0.0,0.0,0.0,0.0,0.0,0.0,0.0,0.0,0.0,0.0,0.0,0.0,0.0,0.0,0.0,0.0,0.0,0.0,0.0,0.0,0.0,0.0,0.0,0.0,0.0,0.0,0.0,0.0,0.0,0.0,0.0,0.0,0.0,0.0,0.0,0.0,0.0,0.0,0.0,0.0,0.0,0.0,0.0,0.0
0.05445645245642354,0.054852170075807546,0.055201086125666765,0.055436830177598644,0.055479402745014665,0.055223908486511965,0.05467219898665152,0.053806826054691906,0.052664384654151554,0.051344474007690336,0.050003707401006244,0.048833162040492074,0.04795317797394916,0.047418036936077365,0.04720954527036601,0.047287649637512794,0.047523529803580135,0.047753700081359145,0.047841503930943205,0.047727853434350334,0.04744744158784846,0.04718605424739313,0.04713237867892151,0.04745732944754145,0.04824616159833466,0.049379290721192855,0.050731936392672115,0.05197800882477429,0.05275790657920886,0.052819987283876,0.05211061907457444,0.051134119932188124,0.050779635967502214,0.05235055346455535,0.057393812969417354,0.06734256444909974,0.08339491721706811,0.10591717550779042,0.13424809099538546,0.16659062549336845,0.20004470264891566,0.23116547847649085,0.2562277431688094,0.27189415984714976,0.27578743801731953,0.2668517816437306,0.24578597548761147,0.2147288860084078,0.17698333432756,0.13646382703439108,0.09697479036042882,0.06183753484275435,0.033181507539605394,0.011790096914997413,-0.0028597839485373796,-0.012388827066955998,-0.01880251651101896,-0.02421322655060796,-0.030276529381156672,-0.03784980382892852,-0.04694508139592777,0.0,0.0,0.0,0.0,0.0,0.0,0.0,0.0,0.0,0.0,0.0,0.0,0.0,0.0,0.0,0.0,0.0,0.0,0.0,0.0,0.0,0.0,0.0,0.0,0.0,0.0,0.0,0.0,0.0,0.0,0.0,0.0,0.0,0.0,0.0,0.0,0.0,0.0,0.0,0.0,0.0,0.0,0.0,0.0,0.0,0.0,0.0,0.0,0.0,0.0,0.0,0.0,0.0,0.0,0.0,0.0,0.0,0.0,0.0,0.0,0.0,0.0,0.0,0.0,0.0,0.0,0.0,0.0,0.0,0.0,0.0,0.0,0.0,0.0,0.0,0.0,0.0,0.0,0.0,0.0,0.0,0.0,0.0,0.0,0.0,0.0,0.0,0.0,0.0,0.0,0.0,0.0,0.0,0.0,0.0,0.0,0.0,0.0,0.0,0.0,0.0,0.0,0.0,0.0,0.0,0.0,0.0,0.0,0.0,0.0,0.0,0.0,0.0,0.0,0.0,0.0,0.0,0.0,0.0,0.0,0.0,0.0,0.0,0.0,0.0,0.0,0.0,0.0,0.0,0.0,0.0,0.0,0.0,0.0,0.0,0.0,0.0,0.0,0.0,0.0,0.0,0.0,0.0,0.0,0.0,0.0,0.0,0.0,0.0,0.0,0.0,0.0,0.0,0.0,0.0,0.0,0.0,0.0,0.0,0.0,0.0,0.0,0.0,0.0,0.0,0.0,0.0,0.0,0.0,0.0,0.0,0.0,0.0,0.0,0.0,0.0,0.0,0.0,0.0,0.0,0.0,0.0,0.0,0.0,0.0,0.0,0.0,0.0,0.0,0.0,0.0,0.0,0.0,0.0,0.0,0.0,0.0,0.0,0.0,0.0,0.0,0.0,0.0,0.0,0.0,0.0,0.0,0.0,0.0,0.0,0.0,0.0,0.0,0.0,0.0,0.0,0.0,0.0,0.0,0.0,0.0,0.0,0.0,0.0,0.0,0.0,0.0,0.0,0.0,0.0,0.0,0.0,0.0,0.0,0.0,0.0,0.0,0.0,0.0
0.06183753484275435,0.033181507539605394,0.011790096914997413,-0.0028597839485373796,-0.012388827066955998,-0.01880251651101896,-0.02421322655060796,-0.030276529381156672,-0.03784980382892852,-0.04694508139592777,-0.0565418322766199,-0.06513326082330646,-0.0710424153542633,-0.07283982370931966,-0.06978125129401612,-0.06169986454455583,-0.04929985199621197,-0.03391741071095804,-0.017244327473107272,-0.0011001272037854753,0.013179599010024924,0.02466474618347296,0.03299843839275405,0.03835116876310512,0.04117577204692069,0.042336155347411954,0.04261995335778333,0.042674832669378424,0.04292123001527225,0.043433526904091004,0.044298002622093796,0.045383109996703766,0.046505264116002386,0.04749129126743938,0.04811854913161175,0.048449135041990915,0.048521168830521176,0.04842189119610159,0.04826142192687258,0.047997353915184615,0.04792402777732181,0.04808695729746872,0.04847408057429279,0.04903155258630577,0.0494841553774321,0.05005730092506686,0.050656487972842223,0.05118707254617535,0.051596505298098456,0.051776981772023146,0.051987768022550784,0.05236472809577079,0.053048757687289755,0.05416145800989113,0.05573511858075712,0.05783242095201422,0.060431563485573825,0.06344126558135162,0.06669983316551899,0.06995701784217453,0.07298525165647789,0.0,0.0,0.0,0.0,0.0,0.0,0.0,0.0,0.0,0.0,0.0,0.0,0.0,0.0,0.0,0.0,0.0,0.0,0.0,0.0,0.0,0.0,0.0,0.0,0.0,0.0,0.0,0.0,0.0,0.0,0.0,0.0,0.0,0.0,0.0,0.0,0.0,0.0,0.0,0.0,0.0,0.0,0.0,0.0,0.0,0.0,0.0,0.0,0.0,0.0,0.0,0.0,0.0,0.0,0.0,0.0,0.0,0.0,0.0,0.0,0.0,0.0,0.0,0.0,0.0,0.0,0.0,0.0,0.0,0.0,0.0,0.0,0.0,0.0,0.0,0.0,0.0,0.0,0.0,0.0,0.0,0.0,0.0,0.0,0.0,0.0,0.0,0.0,0.0,0.0,0.0,0.0,0.0,0.0,0.0,0.0,0.0,0.0,0.0,0.0,0.0,0.0,0.0,0.0,0.0,0.0,0.0,0.0,0.0,0.0,0.0,0.0,0.0,0.0,0.0,0.0,0.0,0.0,0.0,0.0,0.0,0.0,0.0,0.0,0.0,0.0,0.0,0.0,0.0,0.0,0.0,0.0,0.0,0.0,0.0,0.0,0.0,0.0,0.0,0.0,0.0,0.0,0.0,0.0,0.0,0.0,0.0,0.0,0.0,0.0,0.0,0.0,0.0,0.0,0.0,0.0,0.0,0.0,0.0,0.0,0.0,0.0,0.0,0.0,0.0,0.0,0.0,0.0,0.0,0.0,0.0,0.0,0.0,0.0,0.0,0.0,0.0,0.0,0.0,0.0,0.0,0.0,0.0,0.0,0.0,0.0,0.0,0.0,0.0,0.0,0.0,0.0,0.0,0.0,0.0,0.0,0.0,0.0,0.0,0.0,0.0,0.0,0.0,0.0,0.0,0.0,0.0,0.0,0.0,0.0,0.0,0.0,0.0,0.0,0.0,0.0,0.0,0.0,0.0,0.0,0.0,0.0,0.0,0.0,0.0,0.0,0.0,0.0,0.0,0.0,0.0,0.0,0.0,0.0,0.0,0.0,0.0,0.0,0.0
0.05236472809577079,0.053048757687289755,0.05416145800989113,0.05573511858075712,0.05783242095201422,0.060431563485573825,0.06344126558135162,0.06669983316551899,0.06995701784217453,0.07298525165647789,0.07560143799679787,0.07769388492028695,0.07923820832114684,0.08027726237696152,0.08092241495402248,0.08137853069060716,0.08184847123317752,0.08246947958541491,0.08322329523284484,0.08406266189688329,0.08485594556327045,0.08544689222408654,0.08570075084968298,0.08546444166700054,0.08483079712029697,0.08390421262436237,0.0828374265115759,0.08178540533522928,0.0807770603429495,0.07994112512479717,0.07925080604770832,0.07860745521828699,0.07787005982077559,0.07680958203300783,0.07542141083778181,0.07369353806309228,0.0716913279429775,0.06954258601625123,0.06732398435778392,0.0652845078310377,0.06355627966783282,0.0622041397311766,0.06121511221172687,0.06042778618301059,0.05980797095755248,0.05923609719817313,0.058614750388462894,0.057893673838652376,0.05699750296208742,0.05609120307113429,0.055299658937039024,0.054756894681830655,0.054572235465577885,0.054712132932154496,0.05527068116794191,0.05619122395743371,0.05736345310245866,0.058646443923010494,0.059799325775880166,0.06082003000115709,0.06165021680015283,0.0,0.0,0.0,0.0,0.0,0.0,0.0,0.0,0.0,0.0,0.0,0.0,0.0,0.0,0.0,0.0,0.0,0.0,0.0,0.0,0.0,0.0,0.0,0.0,0.0,0.0,0.0,0.0,0.0,0.0,0.0,0.0,0.0,0.0,0.0,0.0,0.0,0.0,0.0,0.0,0.0,0.0,0.0,0.0,0.0,0.0,0.0,0.0,0.0,0.0,0.0,0.0,0.0,0.0,0.0,0.0,0.0,0.0,0.0,0.0,0.0,0.0,0.0,0.0,0.0,0.0,0.0,0.0,0.0,0.0,0.0,0.0,0.0,0.0,0.0,0.0,0.0,0.0,0.0,0.0,0.0,0.0,0.0,0.0,0.0,0.0,0.0,0.0,0.0,0.0,0.0,0.0,0.0,0.0,0.0,0.0,0.0,0.0,0.0,0.0,0.0,0.0,0.0,0.0,0.0,0.0,0.0,0.0,0.0,0.0,0.0,0.0,0.0,0.0,0.0,0.0,0.0,0.0,0.0,0.0,0.0,0.0,0.0,0.0,0.0,0.0,0.0,0.0,0.0,0.0,0.0,0.0,0.0,0.0,0.0,0.0,0.0,0.0,0.0,0.0,0.0,0.0,0.0,0.0,0.0,0.0,0.0,0.0,0.0,0.0,0.0,0.0,0.0,0.0,0.0,0.0,0.0,0.0,0.0,0.0,0.0,0.0,0.0,0.0,0.0,0.0,0.0,0.0,0.0,0.0,0.0,0.0,0.0,0.0,0.0,0.0,0.0,0.0,0.0,0.0,0.0,0.0,0.0,0.0,0.0,0.0,0.0,0.0,0.0,0.0,0.0,0.0,0.0,0.0,0.0,0.0,0.0,0.0,0.0,0.0,0.0,0.0,0.0,0.0,0.0,0.0,0.0,0.0,0.0,0.0,0.0,0.0,0.0,0.0,0.0,0.0,0.0,0.0,0.0,0.0,0.0,0.0,0.0,0.0,0.0,0.0,0.0,0.0,0.0,0.0,0.0,0.0,0.0,0.0,0.0,0.0,0.0,0.0,0.0
0.054756894681830655,0.054572235465577885,0.054712132932154496,0.05527068116794191,0.05619122395743371,0.05736345310245866,0.058646443923010494,0.059799325775880166,0.06082003000115709,0.06165021680015283,0.062275978840705994,0.0627206523804431,0.06292504691212322,0.06306899522712549,0.06320900389033977,0.06337702863864393,0.06357974082269847,0.06370190344431152,0.06385186178309739,0.06402437636354041,0.06421780403413106,0.06443882926495384,0.06460109960053456,0.0648515447180091,0.06521409294079356,0.0656920339120279,0.06626366861778422,0.06678210461733909,0.06730274315981384,0.06775125781226003,0.06804112583715397,0.06808850797061461,0.06773047101536239,0.06705665240834507,0.06608918305141859,0.06488893054063809,0.0635525268808788,0.0621078620298744,0.06080549296189551,0.05978860548023657,0.05917004357040579,0.059016545791142995,0.059247092327104185,0.05992670627909229,0.06097917483033364,0.06228853055761632,0.06371569054764138,0.06503070693761302,0.0662120746949656,0.06718528707034314,0.06791676789449616,0.06841483530413978,0.06864028934430719,0.06875666297112937,0.06885012594796737,0.06898977588164015,0.06921115463752087,0.06942301774713552,0.06967908308609366,0.06991579639790498,0.07005189980984902,0.0,0.0,0.0,0.0,0.0,0.0,0.0,0.0,0.0,0.0,0.0,0.0,0.0,0.0,0.0,0.0,0.0,0.0,0.0,0.0,0.0,0.0,0.0,0.0,0.0,0.0,0.0,0.0,0.0,0.0,0.0,0.0,0.0,0.0,0.0,0.0,0.0,0.0,0.0,0.0,0.0,0.0,0.0,0.0,0.0,0.0,0.0,0.0,0.0,0.0,0.0,0.0,0.0,0.0,0.0,0.0,0.0,0.0,0.0,0.0,0.0,0.0,0.0,0.0,0.0,0.0,0.0,0.0,0.0,0.0,0.0,0.0,0.0,0.0,0.0,0.0,0.0,0.0,0.0,0.0,0.0,0.0,0.0,0.0,0.0,0.0,0.0,0.0,0.0,0.0,0.0,0.0,0.0,0.0,0.0,0.0,0.0,0.0,0.0,0.0,0.0,0.0,0.0,0.0,0.0,0.0,0.0,0.0,0.0,0.0,0.0,0.0,0.0,0.0,0.0,0.0,0.0,0.0,0.0,0.0,0.0,0.0,0.0,0.0,0.0,0.0,0.0,0.0,0.0,0.0,0.0,0.0,0.0,0.0,0.0,0.0,0.0,0.0,0.0,0.0,0.0,0.0,0.0,0.0,0.0,0.0,0.0,0.0,0.0,0.0,0.0,0.0,0.0,0.0,0.0,0.0,0.0,0.0,0.0,0.0,0.0,0.0,0.0,0.0,0.0,0.0,0.0,0.0,0.0,0.0,0.0,0.0,0.0,0.0,0.0,0.0,0.0,0.0,0.0,0.0,0.0,0.0,0.0,0.0,0.0,0.0,0.0,0.0,0.0,0.0,0.0,0.0,0.0,0.0,0.0,0.0,0.0,0.0,0.0,0.0,0.0,0.0,0.0,0.0,0.0,0.0,0.0,0.0,0.0,0.0,0.0,0.0,0.0,0.0,0.0,0.0,0.0,0.0,0.0,0.0,0.0,0.0,0.0,0.0,0.0,0.0,0.0,0.0,0.0,0.0,0.0,0.0,0.0,0.0,0.0,0.0,0.0,0.0,0.0
0.06841483530413978,0.06864028934430719,0.06875666297112937,0.06885012594796737,0.06898977588164015,0.06921115463752087,0.06942301774713552,0.06967908308609366,0.06991579639790498,0.07005189980984902,0.07000747397090196,0.06963601126000955,0.06901612896888337,0.068175364106657,0.06717440000957044,0.06609699726061576,0.06493583487773819,0.06389531962992796,0.06306270261289927,0.06249012338472823,0.062186520550329534,0.06200424996615106,0.06200655955771666,0.0621360003741986,0.06233130501623381,0.0625382521429924,0.06268058122179701,0.06279603972994523,0.06286618746955994,0.06288861964277875,0.06288998373565527,0.06297161978594851,0.06320491512238631,0.06360879559005593,0.06416110235258826,0.064804710953991,0.06544565400854906,0.06604396132999134,0.06650462996649974,0.06674641083431777,0.0667194381723267,0.06634022111181052,0.06573090377478313,0.06495845495198414,0.06409709238809382,0.06321414253050223,0.06227219326596524,0.06141649495949133,0.0606871588735323,0.06011235233953255,0.059708846888677745,0.05937333193132726,0.05921212195788888,0.05920199762091962,0.059289018662732396,0.059396039554281375,0.059333978572197944,0.059183762244646346,0.058987558786221014,0.05887816181645459,0.059083232219885005,0.0,0.0,0.0,0.0,0.0,0.0,0.0,0.0,0.0,0.0,0.0,0.0,0.0,0.0,0.0,0.0,0.0,0.0,0.0,0.0,0.0,0.0,0.0,0.0,0.0,0.0,0.0,0.0,0.0,0.0,0.0,0.0,0.0,0.0,0.0,0.0,0.0,0.0,0.0,0.0,0.0,0.0,0.0,0.0,0.0,0.0,0.0,0.0,0.0,0.0,0.0,0.0,0.0,0.0,0.0,0.0,0.0,0.0,0.0,0.0,0.0,0.0,0.0,0.0,0.0,0.0,0.0,0.0,0.0,0.0,0.0,0.0,0.0,0.0,0.0,0.0,0.0,0.0,0.0,0.0,0.0,0.0,0.0,0.0,0.0,0.0,0.0,0.0,0.0,0.0,0.0,0.0,0.0,0.0,0.0,0.0,0.0,0.0,0.0,0.0,0.0,0.0,0.0,0.0,0.0,0.0,0.0,0.0,0.0,0.0,0.0,0.0,0.0,0.0,0.0,0.0,0.0,0.0,0.0,0.0,0.0,0.0,0.0,0.0,0.0,0.0,0.0,0.0,0.0,0.0,0.0,0.0,0.0,0.0,0.0,0.0,0.0,0.0,0.0,0.0,0.0,0.0,0.0,0.0,0.0,0.0,0.0,0.0,0.0,0.0,0.0,0.0,0.0,0.0,0.0,0.0,0.0,0.0,0.0,0.0,0.0,0.0,0.0,0.0,0.0,0.0,0.0,0.0,0.0,0.0,0.0,0.0,0.0,0.0,0.0,0.0,0.0,0.0,0.0,0.0,0.0,0.0,0.0,0.0,0.0,0.0,0.0,0.0,0.0,0.0,0.0,0.0,0.0,0.0,0.0,0.0,0.0,0.0,0.0,0.0,0.0,0.0,0.0,0.0,0.0,0.0,0.0,0.0,0.0,0.0,0.0,0.0,0.0,0.0,0.0,0.0,0.0,0.0,0.0,0.0,0.0,0.0,0.0,0.0,0.0,0.0,0.0,0.0,0.0,0.0,0.0,0.0,0.0,0.0,0.0,0.0,0.0,0.0,0.0
0.05937333193132726,0.05921212195788888,0.05920199762091962,0.059289018662732396,0.059396039554281375,0.059333978572197944,0.059183762244646346,0.058987558786221014,0.05887816181645459,0.059083232219885005,0.05978674439989058,0.061436005043808486,0.06430163410109599,0.0684817855858199,0.0738023669168089,0.07964666707620627,0.08525997468205715,0.08948792480757416,0.09100646612838732,0.08852150161373279,0.08092177949675783,0.06779275152420043,0.04932051638387741,0.026466098463022534,0.0009248524074849935,-0.02513270455792079,-0.04908705986672014,-0.06850638839888384,-0.0814300964401031,-0.0866717967987628,-0.08407581833695278,-0.07427742431151119,-0.05882108245673063,-0.039795514278592826,-0.019474681922561368,-3.523285727006672e-05,0.01700879595654353,0.030713386122052926,0.04083180943858605,0.04772243295364006,0.05207256911332964,0.0549340569426472,0.05720781763760554,0.05955757620362124,0.062320986827243414,0.06542826938950719,0.06875631358143472,0.07197429813642472,0.07476284478511065,0.07691954070084676,0.07832852520927142,0.07922849845562446,0.0798801479511259,0.08056093937028805,0.08147166766485656,0.08257622855113429,0.08386538073141787,0.08509202113378013,0.08592246683886087,0.08602379462886636,0.08505540490214201,0.0,0.0,0.0,0.0,0.0,0.0,0.0,0.0,0.0,0.0,0.0,0.0,0.0,0.0,0.0,0.0,0.0,0.0,0.0,0.0,0.0,0.0,0.0,0.0,0.0,0.0,0.0,0.0,0.0,0.0,0.0,0.0,0.0,0.0,0.0,0.0,0.0,0.0,0.0,0.0,0.0,0.0,0.0,0.0,0.0,0.0,0.0,0.0,0.0,0.0,0.0,0.0,0.0,0.0,0.0,0.0,0.0,0.0,0.0,0.0,0.0,0.0,0.0,0.0,0.0,0.0,0.0,0.0,0.0,0.0,0.0,0.0,0.0,0.0,0.0,0.0,0.0,0.0,0.0,0.0,0.0,0.0,0.0,0.0,0.0,0.0,0.0,0.0,0.0,0.0,0.0,0.0,0.0,0.0,0.0,0.0,0.0,0.0,0.0,0.0,0.0,0.0,0.0,0.0,0.0,0.0,0.0,0.0,0.0,0.0,0.0,0.0,0.0,0.0,0.0,0.0,0.0,0.0,0.0,0.0,0.0,0.0,0.0,0.0,0.0,0.0,0.0,0.0,0.0,0.0,0.0,0.0,0.0,0.0,0.0,0.0,0.0,0.0,0.0,0.0,0.0,0.0,0.0,0.0,0.0,0.0,0.0,0.0,0.0,0.0,0.0,0.0,0.0,0.0,0.0,0.0,0.0,0.0,0.0,0.0,0.0,0.0,0.0,0.0,0.0,0.0,0.0,0.0,0.0,0.0,0.0,0.0,0.0,0.0,0.0,0.0,0.0,0.0,0.0,0.0,0.0,0.0,0.0,0.0,0.0,0.0,0.0,0.0,0.0,0.0,0.0,0.0,0.0,0.0,0.0,0.0,0.0,0.0,0.0,0.0,0.0,0.0,0.0,0.0,0.0,0.0,0.0,0.0,0.0,0.0,0.0,0.0,0.0,0.0,0.0,0.0,0.0,0.0,0.0,0.0,0.0,0.0,0.0,0.0,0.0,0.0,0.0,0.0,0.0,0.0,0.0,0.0,0.0,0.0,0.0,0.0,0.0,0.0,0.0
0.07922849845562446,0.0798801479511259,0.08056093937028805,0.08147166766485656,0.08257622855113429,0.08386538073141787,0.08509202113378013,0.08592246683886087,0.08602379462886636,0.08505540490214201,0.08304173036867714,0.0800979831138284,0.07649925714108118,0.07261936710329953,0.06875163202543624,0.06534071467520747,0.06260047353347016,0.060587797064803585,0.0592149395777327,0.05819644517506975,0.05743017727675176,0.056715920697637257,0.05591368008573959,0.0549707682210808,0.0538666891742402,0.05274856425872447,0.0517682090131539,0.05106539434200866,0.050726596864428895,0.0507497405207544,0.05104330004831015,0.05153910281703817,0.052158407325193765,0.05281974146250524,0.053340434176399394,0.05375622779165116,0.05410912638494586,0.054472888215564765,0.05491288606058158,0.05524645359746899,0.055645209893245916,0.0561126076856409,0.056633153058218796,0.05717834462870532,0.05743483750326551,0.057667952636700465,0.05799809681416882,0.058559518090076354,0.05944380319682907,0.060296636253426156,0.061394248269999,0.06274206003555453,0.06432762291287526,0.0661097393319759,0.06778237173026203,0.06943462361963111,0.07093797341280794,0.07211905739160343,0.07277567546712274,0.07263556786576154,0.07167063711406325,0.0,0.0,0.0,0.0,0.0,0.0,0.0,0.0,0.0,0.0,0.0,0.0,0.0,0.0,0.0,0.0,0.0,0.0,0.0,0.0,0.0,0.0,0.0,0.0,0.0,0.0,0.0,0.0,0.0,0.0,0.0,0.0,0.0,0.0,0.0,0.0,0.0,0.0,0.0,0.0,0.0,0.0,0.0,0.0,0.0,0.0,0.0,0.0,0.0,0.0,0.0,0.0,0.0,0.0,0.0,0.0,0.0,0.0,0.0,0.0,0.0,0.0,0.0,0.0,0.0,0.0,0.0,0.0,0.0,0.0,0.0,0.0,0.0,0.0,0.0,0.0,0.0,0.0,0.0,0.0,0.0,0.0,0.0,0.0,0.0,0.0,0.0,0.0,0.0,0.0,0.0,0.0,0.0,0.0,0.0,0.0,0.0,0.0,0.0,0.0,0.0,0.0,0.0,0.0,0.0,0.0,0.0,0.0,0.0,0.0,0.0,0.0,0.0,0.0,0.0,0.0,0.0,0.0,0.0,0.0,0.0,0.0,0.0,0.0,0.0,0.0,0.0,0.0,0.0,0.0,0.0,0.0,0.0,0.0,0.0,0.0,0.0,0.0,0.0,0.0,0.0,0.0,0.0,0.0,0.0,0.0,0.0,0.0,0.0,0.0,0.0,0.0,0.0,0.0,0.0,0.0,0.0,0.0,0.0,0.0,0.0,0.0,0.0,0.0,0.0,0.0,0.0,0.0,0.0,0.0,0.0,0.0,0.0,0.0,0.0,0.0,0.0,0.0,0.0,0.0,0.0,0.0,0.0,0.0,0.0,0.0,0.0,0.0,0.0,0.0,0.0,0.0,0.0,0.0,0.0,0.0,0.0,0.0,0.0,0.0,0.0,0.0,0.0,0.0,0.0,0.0,0.0,0.0,0.0,0.0,0.0,0.0,0.0,0.0,0.0,0.0,0.0,0.0,0.0,0.0,0.0,0.0,0.0,0.0,0.0,0.0,0.0,0.0,0.0,0.0,0.0,0.0,0.0,0.0,0.0,0.0,0.0,0.0,0.0
0.06274206003555453,0.06432762291287526,0.0661097393319759,0.06778237173026203,0.06943462361963111,0.07093797341280794,0.07211905739160343,0.07277567546712274,0.07263556786576154,0.07167063711406325,0.06985532469652717,0.06730665073278534,0.064297577164389,0.06116059233888038,0.05843586773238465,0.05651910789601353,0.05564470163559863,0.05581947886165526,0.056756600205158415,0.058109849862314426,0.059379547659476936,0.060129411626375966,0.060140284598937846,0.059477321928366356,0.058697880636214485,0.05861419981503211,0.060215265457730496,0.06446109033622044,0.07200865651919731,0.08315921555798843,0.09757403623429882,0.11434588220687918,0.1321591790920239,0.14953463884345927,0.16530274997991523,0.1787724226676485,0.19000525688660944,0.19985726784782737,0.2097739228255901,0.22152619136555385,0.2365694973931222,0.2555976956217843,0.27817501306269876,0.30258215677255684,0.3260584029965102,0.34511282093077134,0.3562132436687635,0.3564927582775701,0.34434728062648295,0.31986523781650616,0.28476987910187707,0.2421939550991977,0.19615247727861612,0.15085270276802226,0.11010255656996297,0.07663495844167761,0.05185581477538976,0.03581219627966215,0.027378138746155977,0.024742569489759378,0.025704476326912213,0.0,0.0,0.0,0.0,0.0,0.0,0.0,0.0,0.0,0.0,0.0,0.0,0.0,0.0,0.0,0.0,0.0,0.0,0.0,0.0,0.0,0.0,0.0,0.0,0.0,0.0,0.0,0.0,0.0,0.0,0.0,0.0,0.0,0.0,0.0,0.0,0.0,0.0,0.0,0.0,0.0,0.0,0.0,0.0,0.0,0.0,0.0,0.0,0.0,0.0,0.0,0.0,0.0,0.0,0.0,0.0,0.0,0.0,0.0,0.0,0.0,0.0,0.0,0.0,0.0,0.0,0.0,0.0,0.0,0.0,0.0,0.0,0.0,0.0,0.0,0.0,0.0,0.0,0.0,0.0,0.0,0.0,0.0,0.0,0.0,0.0,0.0,0.0,0.0,0.0,0.0,0.0,0.0,0.0,0.0,0.0,0.0,0.0,0.0,0.0,0.0,0.0,0.0,0.0,0.0,0.0,0.0,0.0,0.0,0.0,0.0,0.0,0.0,0.0,0.0,0.0,0.0,0.0,0.0,0.0,0.0,0.0,0.0,0.0,0.0,0.0,0.0,0.0,0.0,0.0,0.0,0.0,0.0,0.0,0.0,0.0,0.0,0.0,0.0,0.0,0.0,0.0,0.0,0.0,0.0,0.0,0.0,0.0,0.0,0.0,0.0,0.0,0.0,0.0,0.0,0.0,0.0,0.0,0.0,0.0,0.0,0.0,0.0,0.0,0.0,0.0,0.0,0.0,0.0,0.0,0.0,0.0,0.0,0.0,0.0,0.0,0.0,0.0,0.0,0.0,0.0,0.0,0.0,0.0,0.0,0.0,0.0,0.0,0.0,0.0,0.0,0.0,0.0,0.0,0.0,0.0,0.0,0.0,0.0,0.0,0.0,0.0,0.0,0.0,0.0,0.0,0.0,0.0,0.0,0.0,0.0,0.0,0.0,0.0,0.0,0.0,0.0,0.0,0.0,0.0,0.0,0.0,0.0,0.0,0.0,0.0,0.0,0.0,0.0,0.0,0.0,0.0,0.0,0.0,0.0,0.0,0.0,0.0,0.0
0.2421939550991977,0.19615247727861612,0.15085270276802226,0.11010255656996297,0.07663495844167761,0.05185581477538976,0.03581219627966215,0.027378138746155977,0.024742569489759378,0.025704476326912213,0.028172777071081585,0.03050752227424668,0.03166216088983536,0.0313693192213702,0.029827671294170105,0.027563822749530297,0.025202848268831204,0.02320195877824817,0.021941197821100048,0.02145386235002958,0.021541113173050137,0.021870688421766576,0.02189039352471785,0.021553698779849046,0.020818924817837453,0.01977090009709418,0.01853852857470195,0.016864763076233937,0.015089475147839116,0.013281708949928797,0.0114796032163237,0.009702357325037029,0.007749965739709163,0.005876253454464972,0.00411665696166337,0.0024668124454324445,0.0008661860753721051,-0.0008787309556719548,-0.0027574134712085056,-0.0049585404045916414,-0.007613340359417703,-0.010706561683565857,-0.014177960639258715,-0.017400190799544295,-0.019990781828843958,-0.021657472215823693,-0.02227930944250382,-0.02216191197551183,-0.021235598249839248,-0.019959251320735824,-0.018816872316653386,-0.01813363003034158,-0.018071451801187733,-0.018138943098695345,-0.01783351155048946,-0.016596282372481435,-0.013987950618179335,-0.009885278664183044,-0.004434231241055145,0.0018322317571843852,0.008180754176084822,0.0,0.0,0.0,0.0,0.0,0.0,0.0,0.0,0.0,0.0,0.0,0.0,0.0,0.0,0.0,0.0,0.0,0.0,0.0,0.0,0.0,0.0,0.0,0.0,0.0,0.0,0.0,0.0,0.0,0.0,0.0,0.0,0.0,0.0,0.0,0.0,0.0,0.0,0.0,0.0,0.0,0.0,0.0,0.0,0.0,0.0,0.0,0.0,0.0,0.0,0.0,0.0,0.0,0.0,0.0,0.0,0.0,0.0,0.0,0.0,0.0,0.0,0.0,0.0,0.0,0.0,0.0,0.0,0.0,0.0,0.0,0.0,0.0,0.0,0.0,0.0,0.0,0.0,0.0,0.0,0.0,0.0,0.0,0.0,0.0,0.0,0.0,0.0,0.0,0.0,0.0,0.0,0.0,0.0,0.0,0.0,0.0,0.0,0.0,0.0,0.0,0.0,0.0,0.0,0.0,0.0,0.0,0.0,0.0,0.0,0.0,0.0,0.0,0.0,0.0,0.0,0.0,0.0,0.0,0.0,0.0,0.0,0.0,0.0,0.0,0.0,0.0,0.0,0.0,0.0,0.0,0.0,0.0,0.0,0.0,0.0,0.0,0.0,0.0,0.0,0.0,0.0,0.0,0.0,0.0,0.0,0.0,0.0,0.0,0.0,0.0,0.0,0.0,0.0,0.0,0.0,0.0,0.0,0.0,0.0,0.0,0.0,0.0,0.0,0.0,0.0,0.0,0.0,0.0,0.0,0.0,0.0,0.0,0.0,0.0,0.0,0.0,0.0,0.0,0.0,0.0,0.0,0.0,0.0,0.0,0.0,0.0,0.0,0.0,0.0,0.0,0.0,0.0,0.0,0.0,0.0,0.0,0.0,0.0,0.0,0.0,0.0,0.0,0.0,0.0,0.0,0.0,0.0,0.0,0.0,0.0,0.0,0.0,0.0,0.0,0.0,0.0,0.0,0.0,0.0,0.0,0.0,0.0,0.0,0.0,0.0,0.0,0.0,0.0,0.0,0.0,0.0,0.0,0.0,0.0,0.0,0.0,0.0,0.0
-0.01813363003034158,-0.018071451801187733,-0.018138943098695345,-0.01783351155048946,-0.016596282372481435,-0.013987950618179335,-0.009885278664183044,-0.004434231241055145,0.0018322317571843852,0.008180754176084822,0.0139159464237033,0.01862759330025069,0.022551206011234514,0.026591162600649414,0.032332412660257256,0.04181984346558593,0.057133856072724275,0.07997183064227462,0.11103588848056473,0.14966148674037552,0.19363808404074817,0.23930103871761507,0.28202170288580325,0.3167927191142611,0.33905122580024977,0.3454563246159104,0.33447400241606134,0.30673426853829217,0.2649080140738152,0.21331900085570688,0.1572699502307495,0.10222508324738871,0.05306314514725548,0.013413720579100058,-0.014696846373593496,-0.030916424154411475,-0.036372090503973345,-0.03324735452192319,-0.02429376326890509,-0.012324132749788077,0.0002020445427789244,0.011437730918687536,0.02029303131856456,0.02638428642996097,0.029885623171201615,0.03132051323996932,0.03132928526153353,0.030542161280906383,0.029455501433082815,0.028380223026226576,0.02744862851272152,0.02663329119050283,0.025881418076635153,0.025135623951281418,0.024367078149801397,0.023576743785473715,0.02274449339743439,0.021905534028231,0.021078419882060155,0.020268373259585273,0.019467893565411655,0.0,0.0,0.0,0.0,0.0,0.0,0.0,0.0,0.0,0.0,0.0,0.0,0.0,0.0,0.0,0.0,0.0,0.0,0.0,0.0,0.0,0.0,0.0,0.0,0.0,0.0,0.0,0.0,0.0,0.0,0.0,0.0,0.0,0.0,0.0,0.0,0.0,0.0,0.0,0.0,0.0,0.0,0.0,0.0,0.0,0.0,0.0,0.0,0.0,0.0,0.0,0.0,0.0,0.0,0.0,0.0,0.0,0.0,0.0,0.0,0.0,0.0,0.0,0.0,0.0,0.0,0.0,0.0,0.0,0.0,0.0,0.0,0.0,0.0,0.0,0.0,0.0,0.0,0.0,0.0,0.0,0.0,0.0,0.0,0.0,0.0,0.0,0.0,0.0,0.0,0.0,0.0,0.0,0.0,0.0,0.0,0.0,0.0,0.0,0.0,0.0,0.0,0.0,0.0,0.0,0.0,0.0,0.0,0.0,0.0,0.0,0.0,0.0,0.0,0.0,0.0,0.0,0.0,0.0,0.0,0.0,0.0,0.0,0.0,0.0,0.0,0.0,0.0,0.0,0.0,0.0,0.0,0.0,0.0,0.0,0.0,0.0,0.0,0.0,0.0,0.0,0.0,0.0,0.0,0.0,0.0,0.0,0.0,0.0,0.0,0.0,0.0,0.0,0.0,0.0,0.0,0.0,0.0,0.0,0.0,0.0,0.0,0.0,0.0,0.0,0.0,0.0,0.0,0.0,0.0,0.0,0.0,0.0,0.0,0.0,0.0,0.0,0.0,0.0,0.0,0.0,0.0,0.0,0.0,0.0,0.0,0.0,0.0,0.0,0.0,0.0,0.0,0.0,0.0,0.0,0.0,0.0,0.0,0.0,0.0,0.0,0.0,0.0,0.0,0.0,0.0,0.0,0.0,0.0,0.0,0.0,0.0,0.0,0.0,0.0,0.0,0.0,0.0,0.0,0.0,0.0,0.0,0.0,0.0,0.0,0.0,0.0,0.0,0.0,0.0,0.0,0.0,0.0,0.0,0.0,0.0,0.0,0.0,0.0
0.02663329119050283,0.025881418076635153,0.025135623951281418,0.024367078149801397,0.023576743785473715,0.02274449339743439,0.021905534028231,0.021078419882060155,0.020268373259585273,0.019467893565411655,0.018625952092829547,0.01777632992700483,0.016935088836843814,0.01612442670707024,0.015359043345349595,0.014590815896561908,0.013846253635617702,0.013080266688145915,0.012246909350113973,0.01132510326465881,0.010223849221711425,0.009206940937818622,0.008346967018229852,0.00769893999218618,0.007291163183968024,0.00692931426156058,0.006891793838407148,0.007031045509981722,0.0071547449687766876,0.007112232869381516,0.006778774567728655,0.0063973669065410105,0.006148012710052183,0.006253871102099776,0.006933302554795011,0.008367311360731374,0.010587483668979865,0.013537728641785112,0.01704270836723295,0.020832162749455277,0.024588340864091736,0.028012311207108318,0.030883769314969882,0.03310772696684124,0.034731022944115536,0.03590301358593571,0.03690154068511143,0.03797209355857919,0.03929059401483173,0.040912173649832545,0.04271029946500846,0.04451817904461527,0.0460467093178262,0.04698950864097926,0.04709332435554955,0.046158949927601715,0.04425416845175268,0.0415501384759715,0.03833183732284775,0.03493541486424326,0.03161409865096719,0.0,0.0,0.0,0.0,0.0,0.0,0.0,0.0,0.0,0.0,0.0,0.0,0.0,0.0,0.0,0.0,0.0,0.0,0.0,0.0,0.0,0.0,0.0,0.0,0.0,0.0,0.0,0.0,0.0,0.0,0.0,0.0,0.0,0.0,0.0,0.0,0.0,0.0,0.0,0.0,0.0,0.0,0.0,0.0,0.0,0.0,0.0,0.0,0.0,0.0,0.0,0.0,0.0,0.0,0.0,0.0,0.0,0.0,0.0,0.0,0.0,0.0,0.0,0.0,0.0,0.0,0.0,0.0,0.0,0.0,0.0,0.0,0.0,0.0,0.0,0.0,0.0,0.0,0.0,0.0,0.0,0.0,0.0,0.0,0.0,0.0,0.0,0.0,0.0,0.0,0.0,0.0,0.0,0.0,0.0,0.0,0.0,0.0,0.0,0.0,0.0,0.0,0.0,0.0,0.0,0.0,0.0,0.0,0.0,0.0,0.0,0.0,0.0,0.0,0.0,0.0,0.0,0.0,0.0,0.0,0.0,0.0,0.0,0.0,0.0,0.0,0.0,0.0,0.0,0.0,0.0,0.0,0.0,0.0,0.0,0.0,0.0,0.0,0.0,0.0,0.0,0.0,0.0,0.0,0.0,0.0,0.0,0.0,0.0,0.0,0.0,0.0,0.0,0.0,0.0,0.0,0.0,0.0,0.0,0.0,0.0,0.0,0.0,0.0,0.0,0.0,0.0,0.0,0.0,0.0,0.0,0.0,0.0,0.0,0.0,0.0,0.0,0.0,0.0,0.0,0.0,0.0,0.0,0.0,0.0,0.0,0.0,0.0,0.0,0.0,0.0,0.0,0.0,0.0,0.0,0.0,0.0,0.0,0.0,0.0,0.0,0.0,0.0,0.0,0.0,0.0,0.0,0.0,0.0,0.0,0.0,0.0,0.0,0.0,0.0,0.0,0.0,0.0,0.0,0.0,0.0,0.0,0.0,0.0,0.0,0.0,0.0,0.0,0.0,0.0,0.0,0.0,0.0,0.0,0.0,0.0,0.0,0.0,0.0
0.04451817904461527,0.0460467093178262,0.04698950864097926,0.04709332435554955,0.046158949927601715,0.04425416845175268,0.0415501384759715,0.03833183732284775,0.03493541486424326,0.03161409865096719,0.02866643177112936,0.02622760659051583,0.02430192721603315,0.022777505372936973,0.02140018258389519,0.020032939897256623,0.018539276020374362,0.016864930740618924,0.015043963845573771,0.013115599334665553,0.01127109147916439,0.00964945612926523,0.008331801639493475,0.007310422318210568,0.006429210101289566,0.005583651575391574,0.004631466760220642,0.0034795251479685417,0.0021192852252840816,0.0005795569252787672,-0.0009191424791294263,-0.0021498146107634154,-0.0029071183133847866,-0.003071851867642405,-0.0027107143162472323,-0.0019054687215830832,-0.0008578975000572548,0.0002077892147791774,0.0011140268988999364,0.0017205829495557463,0.002169967960419625,0.0026963699851124574,0.003626959994024722,0.00529990566544228,0.007894135407725815,0.011605435202277586,0.016377502511334362,0.021968986514016832,0.02799442014074591,0.03392123551226465,0.03939593489962034,0.044097567648631375,0.047859963379762685,0.05068893461604954,0.0526700490686025,0.054143721042317496,0.05540850439782876,0.056717581615568474,0.05822165850085713,0.05988456071944533,0.06166486281417518,0.0,0.0,0.0,0.0,0.0,0.0,0.0,0.0,0.0,0.0,0.0,0.0,0.0,0.0,0.0,0.0,0.0,0.0,0.0,0.0,0.0,0.0,0.0,0.0,0.0,0.0,0.0,0.0,0.0,0.0,0.0,0.0,0.0,0.0,0.0,0.0,0.0,0.0,0.0,0.0,0.0,0.0,0.0,0.0,0.0,0.0,0.0,0.0,0.0,0.0,0.0,0.0,0.0,0.0,0.0,0.0,0.0,0.0,0.0,0.0,0.0,0.0,0.0,0.0,0.0,0.0,0.0,0.0,0.0,0.0,0.0,0.0,0.0,0.0,0.0,0.0,0.0,0.0,0.0,0.0,0.0,0.0,0.0,0.0,0.0,0.0,0.0,0.0,0.0,0.0,0.0,0.0,0.0,0.0,0.0,0.0,0.0,0.0,0.0,0.0,0.0,0.0,0.0,0.0,0.0,0.0,0.0,0.0,0.0,0.0,0.0,0.0,0.0,0.0,0.0,0.0,0.0,0.0,0.0,0.0,0.0,0.0,0.0,0.0,0.0,0.0,0.0,0.0,0.0,0.0,0.0,0.0,0.0,0.0,0.0,0.0,0.0,0.0,0.0,0.0,0.0,0.0,0.0,0.0,0.0,0.0,0.0,0.0,0.0,0.0,0.0,0.0,0.0,0.0,0.0,0.0,0.0,0.0,0.0,0.0,0.0,0.0,0.0,0.0,0.0,0.0,0.0,0.0,0.0,0.0,0.0,0.0,0.0,0.0,0.0,0.0,0.0,0.0,0.0,0.0,0.0,0.0,0.0,0.0,0.0,0.0,0.0,0.0,0.0,0.0,0.0,0.0,0.0,0.0,0.0,0.0,0.0,0.0,0.0,0.0,0.0,0.0,0.0,0.0,0.0,0.0,0.0,0.0,0.0,0.0,0.0,0.0,0.0,0.0,0.0,0.0,0.0,0.0,0.0,0.0,0.0,0.0,0.0,0.0,0.0,0.0,0.0,0.0,0.0,0.0,0.0,0.0,0.0,0.0,0.0,0.0,0.0,0.0,0.0
0.044097567648631375,0.047859963379762685,0.05068893461604954,0.0526700490686025,0.054143721042317496,0.05540850439782876,0.056717581615568474,0.05822165850085713,0.05988456071944533,0.06166486281417518,0.06337808956005571,0.06480530371834133,0.06575438238566471,0.06607099293128794,0.06579207095247329,0.06502290171059466,0.06394433844380969,0.06276642934757035,0.06164607683700839,0.06075273319389574,0.06015442230030415,0.05984809161055798,0.059778476309475984,0.059838357363443236,0.059975602013461436,0.06013926942790927,0.06030219996230255,0.06045425936472993,0.06056776517833592,0.060667240137664655,0.060770874763383706,0.060909707739518454,0.06113004241998388,0.06146675215475506,0.06200060440196919,0.06278902747085918,0.06385013296045854,0.06513765406700674,0.06650694000289231,0.06779177033539902,0.06878229885255228,0.06928082254258508,0.06914526571402958,0.06830088676153438,0.06681952572187976,0.06485244473324962,0.06261072795880156,0.06031577861044836,0.05811566686842002,0.05615803202845499,0.05445848350380443,0.05294491269016324,0.05148629150686714,0.04988805045826661,0.048089824197139044,0.04602503124745342,0.043698618272162724,0.041189986958146164,0.03858776212025311,0.036128747061356145,0.03396759775543476,0.0,0.0,0.0,0.0,0.0,0.0,0.0,0.0,0.0,0.0,0.0,0.0,0.0,0.0,0.0,0.0,0.0,0.0,0.0,0.0,0.0,0.0,0.0,0.0,0.0,0.0,0.0,0.0,0.0,0.0,0.0,0.0,0.0,0.0,0.0,0.0,0.0,0.0,0.0,0.0,0.0,0.0,0.0,0.0,0.0,0.0,0.0,0.0,0.0,0.0,0.0,0.0,0.0,0.0,0.0,0.0,0.0,0.0,0.0,0.0,0.0,0.0,0.0,0.0,0.0,0.0,0.0,0.0,0.0,0.0,0.0,0.0,0.0,0.0,0.0,0.0,0.0,0.0,0.0,0.0,0.0,0.0,0.0,0.0,0.0,0.0,0.0,0.0,0.0,0.0,0.0,0.0,0.0,0.0,0.0,0.0,0.0,0.0,0.0,0.0,0.0,0.0,0.0,0.0,0.0,0.0,0.0,0.0,0.0,0.0,0.0,0.0,0.0,0.0,0.0,0.0,0.0,0.0,0.0,0.0,0.0,0.0,0.0,0.0,0.0,0.0,0.0,0.0,0.0,0.0,0.0,0.0,0.0,0.0,0.0,0.0,0.0,0.0,0.0,0.0,0.0,0.0,0.0,0.0,0.0,0.0,0.0,0.0,0.0,0.0,0.0,0.0,0.0,0.0,0.0,0.0,0.0,0.0,0.0,0.0,0.0,0.0,0.0,0.0,0.0,0.0,0.0,0.0,0.0,0.0,0.0,0.0,0.0,0.0,0.0,0.0,0.0,0.0,0.0,0.0,0.0,0.0,0.0,0.0,0.0,0.0,0.0,0.0,0.0,0.0,0.0,0.0,0.0,0.0,0.0,0.0,0.0,0.0,0.0,0.0,0.0,0.0,0.0,0.0,0.0,0.0,0.0,0.0,0.0,0.0,0.0,0.0,0.0,0.0,0.0,0.0,0.0,0.0,0.0,0.0,0.0,0.0,0.0,0.0,0.0,0.0,0.0,0.0,0.0,0.0,0.0,0.0,0.0,0.0,0.0,0.0,0.0,0.0,0.0
0.05294491269016324,0.05148629150686714,0.04988805045826661,0.048089824197139044,0.04602503124745342,0.043698618272162724,0.041189986958146164,0.03858776212025311,0.036128747061356145,0.03396759775543476,0.03220982867782383,0.030893682409425183,0.029933944843784525,0.029317357403939828,0.028914430694478053,0.028585106937110142,0.028215334806512244,0.027693863670934373,0.027097264783210676,0.026481261502818487,0.025930763905796548,0.0255369872035993,0.025325775733022353,0.025402801300102026,0.025752216131831818,0.02630617650417471,0.026963002828553153,0.02756357293544696,0.028075069467876006,0.028415536075214902,0.028528585707166515,0.028389018453507008,0.02795617057362891,0.02732859204942661,0.02654734573100125,0.02565745959286267,0.024709520717853962,0.023697875168209113,0.02277139215344178,0.021992527760937616,0.02140557627207037,0.02103002298220092,0.020776171907901847,0.020711550485591645,0.020788736080697534,0.020946073983578707,0.021122856601708546,0.021207822992267568,0.021258370244629735,0.021271385864792644,0.021253280104358615,0.02121569022121617,0.021123549576771036,0.02105167733703771,0.02100417281647376,0.020975969763375246,0.020958405522410968,0.02089644154591642,0.020845072004373646,0.02080284753344438,0.020760796673914634,0.0,0.0,0.0,0.0,0.0,0.0,0.0,0.0,0.0,0.0,0.0,0.0,0.0,0.0,0.0,0.0,0.0,0.0,0.0,0.0,0.0,0.0,0.0,0.0,0.0,0.0,0.0,0.0,0.0,0.0,0.0,0.0,0.0,0.0,0.0,0.0,0.0,0.0,0.0,0.0,0.0,0.0,0.0,0.0,0.0,0.0,0.0,0.0,0.0,0.0,0.0,0.0,0.0,0.0,0.0,0.0,0.0,0.0,0.0,0.0,0.0,0.0,0.0,0.0,0.0,0.0,0.0,0.0,0.0,0.0,0.0,0.0,0.0,0.0,0.0,0.0,0.0,0.0,0.0,0.0,0.0,0.0,0.0,0.0,0.0,0.0,0.0,0.0,0.0,0.0,0.0,0.0,0.0,0.0,0.0,0.0,0.0,0.0,0.0,0.0,0.0,0.0,0.0,0.0,0.0,0.0,0.0,0.0,0.0,0.0,0.0,0.0,0.0,0.0,0.0,0.0,0.0,0.0,0.0,0.0,0.0,0.0,0.0,0.0,0.0,0.0,0.0,0.0,0.0,0.0,0.0,0.0,0.0,0.0,0.0,0.0,0.0,0.0,0.0,0.0,0.0,0.0,0.0,0.0,0.0,0.0,0.0,0.0,0.0,0.0,0.0,0.0,0.0,0.0,0.0,0.0,0.0,0.0,0.0,0.0,0.0,0.0,0.0,0.0,0.0,0.0,0.0,0.0,0.0,0.0,0.0,0.0,0.0,0.0,0.0,0.0,0.0,0.0,0.0,0.0,0.0,0.0,0.0,0.0,0.0,0.0,0.0,0.0,0.0,0.0,0.0,0.0,0.0,0.0,0.0,0.0,0.0,0.0,0.0,0.0,0.0,0.0,0.0,0.0,0.0,0.0,0.0,0.0,0.0,0.0,0.0,0.0,0.0,0.0,0.0,0.0,0.0,0.0,0.0,0.0,0.0,0.0,0.0,0.0,0.0,0.0,0.0,0.0,0.0,0.0,0.0,0.0,0.0,0.0,0.0,0.0,0.0,0.0,0.0
0.02121569022121617,0.021123549576771036,0.02105167733703771,0.02100417281647376,0.020975969763375246,0.020958405522410968,0.02089644154591642,0.020845072004373646,0.02080284753344438,0.020760796673914634,0.020701120823605763,0.020552181204517232,0.020344659653462115,0.020070342798090383,0.019734501876336935,0.019359087298020064,0.01893651553713246,0.018560427603728353,0.018274262983060553,0.018098052918380857,0.018017053772434368,0.0179388242209826,0.017830879687354244,0.017614140888481993,0.017228122142853762,0.016658626230216026,0.015911271435166234,0.015172958313307719,0.014656552161219643,0.014615656757837759,0.01530019868799769,0.01684938512655579,0.01942100573030302,0.02299126929817932,0.027388393185373203,0.03230054591959956,0.03725630228260371,0.04183953112179654,0.04560208931192681,0.04817109070184076,0.04930089315120144,0.048859102566546235,0.046985060613134524,0.043938272284721885,0.040098509209832406,0.03590933880269129,0.03176749905542611,0.02811542221120964,0.025258484600419257,0.023377001456716392,0.022517784454181147,0.022556683518423163,0.02337796462390433,0.02477069195506012,0.026504409352959137,0.028358150280123486,0.030077261837985418,0.03158074784239997,0.03278974585940043,0.0336663972171928,0.03419851610606583,0.0,0.0,0.0,0.0,0.0,0.0,0.0,0.0,0.0,0.0,0.0,0.0,0.0,0.0,0.0,0.0,0.0,0.0,0.0,0.0,0.0,0.0,0.0,0.0,0.0,0.0,0.0,0.0,0.0,0.0,0.0,0.0,0.0,0.0,0.0,0.0,0.0,0.0,0.0,0.0,0.0,0.0,0.0,0.0,0.0,0.0,0.0,0.0,0.0,0.0,0.0,0.0,0.0,0.0,0.0,0.0,0.0,0.0,0.0,0.0,0.0,0.0,0.0,0.0,0.0,0.0,0.0,0.0,0.0,0.0,0.0,0.0,0.0,0.0,0.0,0.0,0.0,0.0,0.0,0.0,0.0,0.0,0.0,0.0,0.0,0.0,0.0,0.0,0.0,0.0,0.0,0.0,0.0,0.0,0.0,0.0,0.0,0.0,0.0,0.0,0.0,0.0,0.0,0.0,0.0,0.0,0.0,0.0,0.0,0.0,0.0,0.0,0.0,0.0,0.0,0.0,0.0,0.0,0.0,0.0,0.0,0.0,0.0,0.0,0.0,0.0,0.0,0.0,0.0,0.0,0.0,0.0,0.0,0.0,0.0,0.0,0.0,0.0,0.0,0.0,0.0,0.0,0.0,0.0,0.0,0.0,0.0,0.0,0.0,0.0,0.0,0.0,0.0,0.0,0.0,0.0,0.0,0.0,0.0,0.0,0.0,0.0,0.0,0.0,0.0,0.0,0.0,0.0,0.0,0.0,0.0,0.0,0.0,0.0,0.0,0.0,0.0,0.0,0.0,0.0,0.0,0.0,0.0,0.0,0.0,0.0,0.0,0.0,0.0,0.0,0.0,0.0,0.0,0.0,0.0,0.0,0.0,0.0,0.0,0.0,0.0,0.0,0.0,0.0,0.0,0.0,0.0,0.0,0.0,0.0,0.0,0.0,0.0,0.0,0.0,0.0,0.0,0.0,0.0,0.0,0.0,0.0,0.0,0.0,0.0,0.0,0.0,0.0,0.0,0.0,0.0,0.0,0.0,0.0,0.0,0.0,0.0,0.0,0.0
0.022556683518423163,0.02337796462390433,0.02477069195506012,0.026504409352959137,0.028358150280123486,0.030077261837985418,0.03158074784239997,0.03278974585940043,0.0336663972171928,0.03419851610606583,0.034307933106301376,0.03408490897476737,0.03358287797584018,0.03287528453750381,0.03205303224970128,0.031082901959289772,0.030214608890159596,0.029628619147262468,0.029490570877620664,0.02990754839333674,0.03069834527339006,0.03197128605317651,0.03366757429470845,0.0356907953699191,0.03790990978804401,0.03997075449429291,0.04187915935112577,0.04355077352245304,0.04491821981842422,0.04591227118275128,0.04626521586656728,0.04608551358214685,0.0454345459494425,0.0444467352513433,0.043310215676010115,0.04211857258817812,0.041163180979438795,0.040593531631081814,0.04046204397414683,0.04070816016926894,0.041140160908430534,0.041594311232230376,0.041856765397140526,0.04178437792241827,0.041363028873831933,0.04070039497641244,0.04011276635050556,0.03994166930844213,0.04050693477018223,0.042017897578394935,0.044476593474125546,0.047753841809259304,0.051521493245587004,0.055369532020416855,0.058929606394835535,0.06197739343498864,0.06464042575149058,0.06733734393508034,0.07077804763173975,0.07584131521127613,0.0833505817717274,0.0,0.0,0.0,0.0,0.0,0.0,0.0,0.0,0.0,0.0,0.0,0.0,0.0,0.0,0.0,0.0,0.0,0.0,0.0,0.0,0.0,0.0,0.0,0.0,0.0,0.0,0.0,0.0,0.0,0.0,0.0,0.0,0.0,0.0,0.0,0.0,0.0,0.0,0.0,0.0,0.0,0.0,0.0,0.0,0.0,0.0,0.0,0.0,0.0,0.0,0.0,0.0,0.0,0.0,0.0,0.0,0.0,0.0,0.0,0.0,0.0,0.0,0.0,0.0,0.0,0.0,0.0,0.0,0.0,0.0,0.0,0.0,0.0,0.0,0.0,0.0,0.0,0.0,0.0,0.0,0.0,0.0,0.0,0.0,0.0,0.0,0.0,0.0,0.0,0.0,0.0,0.0,0.0,0.0,0.0,0.0,0.0,0.0,0.0,0.0,0.0,0.0,0.0,0.0,0.0,0.0,0.0,0.0,0.0,0.0,0.0,0.0,0.0,0.0,0.0,0.0,0.0,0.0,0.0,0.0,0.0,0.0,0.0,0.0,0.0,0.0,0.0,0.0,0.0,0.0,0.0,0.0,0.0,0.0,0.0,0.0,0.0,0.0,0.0,0.0,0.0,0.0,0.0,0.0,0.0,0.0,0.0,0.0,0.0,0.0,0.0,0.0,0.0,0.0,0.0,0.0,0.0,0.0,0.0,0.0,0.0,0.0,0.0,0.0,0.0,0.0,0.0,0.0,0.0,0.0,0.0,0.0,0.0,0.0,0.0,0.0,0.0,0.0,0.0,0.0,0.0,0.0,0.0,0.0,0.0,0.0,0.0,0.0,0.0,0.0,0.0,0.0,0.0,0.0,0.0,0.0,0.0,0.0,0.0,0.0,0.0,0.0,0.0,0.0,0.0,0.0,0.0,0.0,0.0,0.0,0.0,0.0,0.0,0.0,0.0,0.0,0.0,0.0,0.0,0.0,0.0,0.0,0.0,0.0,0.0,0.0,0.0,0.0,0.0,0.0,0.0,0.0,0.0,0.0,0.0,0.0,0.0,0.0,0.0
0.047753841809259304,0.051521493245587004,0.055369532020416855,0.058929606394835535,0.06197739343498864,0.06464042575149058,0.06733734393508034,0.07077804763173975,0.07584131521127613,0.0833505817717274,0.0939501499762203,0.10778384389124006,0.1244089364811723,0.14279628072310768,0.1614445560866461,0.178730624411311,0.19313502330155485,0.20359807789564283,0.2097512462349392,0.21196980324874382,0.21133657559545865,0.20927312335352874,0.20719282152406387,0.206117628784921,0.20636143660296188,0.20749949671751572,0.20834019735351453,0.20723654460493446,0.2024840113349027,0.192715021713522,0.17735422493580527,0.15667928360404015,0.13186568342803534,0.1047982154299864,0.07770741938724984,0.05289025072134092,0.03219956548141725,0.0168146663383866,0.007112419525070066,0.0026585583629954532,0.00249669247333727,0.005259634929887861,0.009498361813093364,0.013936558120917868,0.017605590247596604,0.020069323166940215,0.021244002040456577,0.021348185294030007,0.02076069671676567,0.019826081977378784,0.018912069173462512,0.01817962799021407,0.017640354026508993,0.017204038065372785,0.016681718063544994,0.016063062870572492,0.01532225987249026,0.014493766328711848,0.013647379413979898,0.012771253980608153,0.012002517480682885,0.0,0.0,0.0,0.0,0.0,0.0,0.0,0.0,0.0,0.0,0.0,0.0,0.0,0.0,0.0,0.0,0.0,0.0,0.0,0.0,0.0,0.0,0.0,0.0,0.0,0.0,0.0,0.0,0.0,0.0,0.0,0.0,0.0,0.0,0.0,0.0,0.0,0.0,0.0,0.0,0.0,0.0,0.0,0.0,0.0,0.0,0.0,0.0,0.0,0.0,0.0,0.0,0.0,0.0,0.0,0.0,0.0,0.0,0.0,0.0,0.0,0.0,0.0,0.0,0.0,0.0,0.0,0.0,0.0,0.0,0.0,0.0,0.0,0.0,0.0,0.0,0.0,0.0,0.0,0.0,0.0,0.0,0.0,0.0,0.0,0.0,0.0,0.0,0.0,0.0,0.0,0.0,0.0,0.0,0.0,0.0,0.0,0.0,0.0,0.0,0.0,0.0,0.0,0.0,0.0,0.0,0.0,0.0,0.0,0.0,0.0,0.0,0.0,0.0,0.0,0.0,0.0,0.0,0.0,0.0,0.0,0.0,0.0,0.0,0.0,0.0,0.0,0.0,0.0,0.0,0.0,0.0,0.0,0.0,0.0,0.0,0.0,0.0,0.0,0.0,0.0,0.0,0.0,0.0,0.0,0.0,0.0,0.0,0.0,0.0,0.0,0.0,0.0,0.0,0.0,0.0,0.0,0.0,0.0,0.0,0.0,0.0,0.0,0.0,0.0,0.0,0.0,0.0,0.0,0.0,0.0,0.0,0.0,0.0,0.0,0.0,0.0,0.0,0.0,0.0,0.0,0.0,0.0,0.0,0.0,0.0,0.0,0.0,0.0,0.0,0.0,0.0,0.0,0.0,0.0,0.0,0.0,0.0,0.0,0.0,0.0,0.0,0.0,0.0,0.0,0.0,0.0,0.0,0.0,0.0,0.0,0.0,0.0,0.0,0.0,0.0,0.0,0.0,0.0,0.0,0.0,0.0,0.0,0.0,0.0,0.0,0.0,0.0,0.0,0.0,0.0,0.0,0.0,0.0,0.0,0.0,0.0,0.0,0.0
0.01817962799021407,0.017640354026508993,0.017204038065372785,0.016681718063544994,0.016063062870572492,0.01532225987249026,0.014493766328711848,0.013647379413979898,0.012771253980608153,0.012002517480682885,0.011329097512105403,0.010694752499604158,0.010032599671346327,0.009188016559470397,0.008341173016398888,0.007548959152488756,0.0068853298799842495,0.006417819928712756,0.0060303930509675455,0.005937335199835414,0.006049777112607827,0.006229579898512543,0.006349238286718381,0.006197672237475363,0.006025111598990023,0.005913354185866566,0.005965826219940863,0.006280656644724004,0.006778280535414847,0.007686582222854802,0.008928007699619472,0.010356761857831194,0.011812194055560816,0.0130776808275597,0.014227133566518948,0.015275929622726328,0.016286147716943936,0.01734373146639763,0.018488936952937136,0.019812662291935526,0.021337713636646615,0.02303837366189723,0.024844558465047052,0.026611724654443978,0.028286359071504747,0.029806756233589457,0.031152332148086232,0.032345385463696474,0.033389219365684654,0.034409939406513476,0.03548778034313253,0.03667499185641994,0.03797791159983259,0.03930337940509075,0.04061500674826742,0.04182175398991652,0.042839156063647806,0.04361043773596869,0.044076200852684995,0.044311520661693256,0.044397791800167195,0.0,0.0,0.0,0.0,0.0,0.0,0.0,0.0,0.0,0.0,0.0,0.0,0.0,0.0,0.0,0.0,0.0,0.0,0.0,0.0,0.0,0.0,0.0,0.0,0.0,0.0,0.0,0.0,0.0,0.0,0.0,0.0,0.0,0.0,0.0,0.0,0.0,0.0,0.0,0.0,0.0,0.0,0.0,0.0,0.0,0.0,0.0,0.0,0.0,0.0,0.0,0.0,0.0,0.0,0.0,0.0,0.0,0.0,0.0,0.0,0.0,0.0,0.0,0.0,0.0,0.0,0.0,0.0,0.0,0.0,0.0,0.0,0.0,0.0,0.0,0.0,0.0,0.0,0.0,0.0,0.0,0.0,0.0,0.0,0.0,0.0,0.0,0.0,0.0,0.0,0.0,0.0,0.0,0.0,0.0,0.0,0.0,0.0,0.0,0.0,0.0,0.0,0.0,0.0,0.0,0.0,0.0,0.0,0.0,0.0,0.0,0.0,0.0,0.0,0.0,0.0,0.0,0.0,0.0,0.0,0.0,0.0,0.0,0.0,0.0,0.0,0.0,0.0,0.0,0.0,0.0,0.0,0.0,0.0,0.0,0.0,0.0,0.0,0.0,0.0,0.0,0.0,0.0,0.0,0.0,0.0,0.0,0.0,0.0,0.0,0.0,0.0,0.0,0.0,0.0,0.0,0.0,0.0,0.0,0.0,0.0,0.0,0.0,0.0,0.0,0.0,0.0,0.0,0.0,0.0,0.0,0.0,0.0,0.0,0.0,0.0,0.0,0.0,0.0,0.0,0.0,0.0,0.0,0.0,0.0,0.0,0.0,0.0,0.0,0.0,0.0,0.0,0.0,0.0,0.0,0.0,0.0,0.0,0.0,0.0,0.0,0.0,0.0,0.0,0.0,0.0,0.0,0.0,0.0,0.0,0.0,0.0,0.0,0.0,0.0,0.0,0.0,0.0,0.0,0.0,0.0,0.0,0.0,0.0,0.0,0.0,0.0,0.0,0.0,0.0,0.0,0.0,0.0,0.0,0.0,0.0,0.0,0.0,0.0
0.03667499185641994,0.03797791159983259,0.03930337940509075,0.04061500674826742,0.04182175398991652,0.042839156063647806,0.04361043773596869,0.044076200852684995,0.044311520661693256,0.044397791800167195,0.044432742118776014,0.044501673950568595,0.044607805233254846,0.044794531578018826,0.04503142812847395,0.04525629518956029,0.0453929101651685,0.04532628402078448,0.045057975389630654,0.04460457559781388,0.04402230373588059,0.04338981083396028,0.042740751084980204,0.042180027357805135,0.0417596135163593,0.04149963943289835,0.041386711502752055,0.04133473684395109,0.04133183622442371,0.04134306823113527,0.04134646445227549,0.04133352309653752,0.04126074251451974,0.04118470928032563,0.041139017447023744,0.041160351982214315,0.04128033469032299,0.04147245772748384,0.04178991303459895,0.04223495066196416,0.04279240228266911,0.043427475190452994,0.04403513291522342,0.04460662005985374,0.04508621170246903,0.04542259093094929,0.04557461569058301,0.04545905539448168,0.045134965566932195,0.04463129183468259,0.04399652337773247,0.04329329665607697,0.042534601804612604,0.04185929505532134,0.04134330533387672,0.04104770816085504,0.041011977621570925,0.041192009824855456,0.041642067723670906,0.04232579354131389,0.043179212942200465,0.0,0.0,0.0,0.0,0.0,0.0,0.0,0.0,0.0,0.0,0.0,0.0,0.0,0.0,0.0,0.0,0.0,0.0,0.0,0.0,0.0,0.0,0.0,0.0,0.0,0.0,0.0,0.0,0.0,0.0,0.0,0.0,0.0,0.0,0.0,0.0,0.0,0.0,0.0,0.0,0.0,0.0,0.0,0.0,0.0,0.0,0.0,0.0,0.0,0.0,0.0,0.0,0.0,0.0,0.0,0.0,0.0,0.0,0.0,0.0,0.0,0.0,0.0,0.0,0.0,0.0,0.0,0.0,0.0,0.0,0.0,0.0,0.0,0.0,0.0,0.0,0.0,0.0,0.0,0.0,0.0,0.0,0.0,0.0,0.0,0.0,0.0,0.0,0.0,0.0,0.0,0.0,0.0,0.0,0.0,0.0,0.0,0.0,0.0,0.0,0.0,0.0,0.0,0.0,0.0,0.0,0.0,0.0,0.0,0.0,0.0,0.0,0.0,0.0,0.0,0.0,0.0,0.0,0.0,0.0,0.0,0.0,0.0,0.0,0.0,0.0,0.0,0.0,0.0,0.0,0.0,0.0,0.0,0.0,0.0,0.0,0.0,0.0,0.0,0.0,0.0,0.0,0.0,0.0,0.0,0.0,0.0,0.0,0.0,0.0,0.0,0.0,0.0,0.0,0.0,0.0,0.0,0.0,0.0,0.0,0.0,0.0,0.0,0.0,0.0,0.0,0.0,0.0,0.0,0.0,0.0,0.0,0.0,0.0,0.0,0.0,0.0,0.0,0.0,0.0,0.0,0.0,0.0,0.0,0.0,0.0,0.0,0.0,0.0,0.0,0.0,0.0,0.0,0.0,0.0,0.0,0.0,0.0,0.0,0.0,0.0,0.0,0.0,0.0,0.0,0.0,0.0,0.0,0.0,0.0,0.0,0.0,0.0,0.0,0.0,0.0,0.0,0.0,0.0,0.0,0.0,0.0,0.0,0.0,0.0,0.0,0.0,0.0,0.0,0.0,0.0,0.0,0.0,0.0,0.0,0.0,0.0,0.0,0.0
0.04329329665607697,0.042534601804612604,0.04185929505532134,0.04134330533387672,0.04104770816085504,0.041011977621570925,0.041192009824855456,0.041642067723670906,0.04232579354131389,0.043179212942200465,0.04411883225616785,0.0449831261971045,0.045768606891737805,0.04642121722964601,0.04690948731141048,0.04722568689076476,0.047299915285431184,0.04725607954076651,0.04715300589712053,0.047046909920599386,0.046978596776629966,0.0469592379935018,0.046993763316771374,0.04701823471828564,0.04695225613921295,0.04673150666249517,0.04640992712044235,0.04596367354280842,0.045398154009720706,0.044729809224112876,0.04398912061501964,0.043234417870618304,0.042537483720734036,0.04194610754817927,0.04150330250925204,0.041246734567544116,0.04115042897192731,0.04129405638383577,0.04167304469598902,0.042247709324434786,0.04294278591586414,0.04359306508835566,0.044162479821296056,0.04456193550673465,0.04472922796755049,0.044638837264184154,0.044229782829045494,0.04362292669973871,0.042879690585048744,0.04205351799133023,0.0411810304515418,0.04021725119048585,0.03927621271999831,0.038440870580415364,0.037853081058465514,0.037723223638899434,0.038247493403847414,0.03977806320163792,0.042538750622547986,0.04659420783861705,0.0517556168581281,0.0,0.0,0.0,0.0,0.0,0.0,0.0,0.0,0.0,0.0,0.0,0.0,0.0,0.0,0.0,0.0,0.0,0.0,0.0,0.0,0.0,0.0,0.0,0.0,0.0,0.0,0.0,0.0,0.0,0.0,0.0,0.0,0.0,0.0,0.0,0.0,0.0,0.0,0.0,0.0,0.0,0.0,0.0,0.0,0.0,0.0,0.0,0.0,0.0,0.0,0.0,0.0,0.0,0.0,0.0,0.0,0.0,0.0,0.0,0.0,0.0,0.0,0.0,0.0,0.0,0.0,0.0,0.0,0.0,0.0,0.0,0.0,0.0,0.0,0.0,0.0,0.0,0.0,0.0,0.0,0.0,0.0,0.0,0.0,0.0,0.0,0.0,0.0,0.0,0.0,0.0,0.0,0.0,0.0,0.0,0.0,0.0,0.0,0.0,0.0,0.0,0.0,0.0,0.0,0.0,0.0,0.0,0.0,0.0,0.0,0.0,0.0,0.0,0.0,0.0,0.0,0.0,0.0,0.0,0.0,0.0,0.0,0.0,0.0,0.0,0.0,0.0,0.0,0.0,0.0,0.0,0.0,0.0,0.0,0.0,0.0,0.0,0.0,0.0,0.0,0.0,0.0,0.0,0.0,0.0,0.0,0.0,0.0,0.0,0.0,0.0,0.0,0.0,0.0,0.0,0.0,0.0,0.0,0.0,0.0,0.0,0.0,0.0,0.0,0.0,0.0,0.0,0.0,0.0,0.0,0.0,0.0,0.0,0.0,0.0,0.0,0.0,0.0,0.0,0.0,0.0,0.0,0.0,0.0,0.0,0.0,0.0,0.0,0.0,0.0,0.0,0.0,0.0,0.0,0.0,0.0,0.0,0.0,0.0,0.0,0.0,0.0,0.0,0.0,0.0,0.0,0.0,0.0,0.0,0.0,0.0,0.0,0.0,0.0,0.0,0.0,0.0,0.0,0.0,0.0,0.0,0.0,0.0,0.0,0.0,0.0,0.0,0.0,0.0,0.0,0.0,0.0,0.0,0.0,0.0,0.0,0.0,0.0,0.0
0.04021725119048585,0.03927621271999831,0.038440870580415364,0.037853081058465514,0.037723223638899434,0.038247493403847414,0.03977806320163792,0.042538750622547986,0.04659420783861705,0.0517556168581281,0.05744971375194195,0.06289865603857542,0.06696877130747274,0.0683579013911881,0.06578801007735678,0.058183235106796634,0.04508708019433968,0.026658006603613605,0.00382551836089888,-0.021738881111327206,-0.04783648493567672,-0.0718607310327067,-0.09133540600643576,-0.10422868478578413,-0.1092657723000112,-0.10616708156822886,-0.09553843324418382,-0.07890858789378301,-0.058407368601018333,-0.03640952773779425,-0.015202759111670947,0.0034702493665537317,0.018468292734077747,0.0293768083327716,0.03644671682442269,0.0403852625847535,0.042251345261046305,0.04306868010875765,0.043673923031485366,0.044595496203305586,0.045975306994259266,0.04777540484851833,0.049717605513224426,0.05146596347386073,0.05274427558218848,0.05335809158590754,0.05340267168680859,0.05304616188222263,0.05252382334155151,0.05205860442652992,0.05173487093501857,0.051640280680458575,0.051678749572643096,0.051662626833903665,0.05137293327087136,0.05056961939453641,0.049227923282944036,0.047383885952628726,0.04518093885261647,0.04283068034768408,0.040490749502712926,0.0,0.0,0.0,0.0,0.0,0.0,0.0,0.0,0.0,0.0,0.0,0.0,0.0,0.0,0.0,0.0,0.0,0.0,0.0,0.0,0.0,0.0,0.0,0.0,0.0,0.0,0.0,0.0,0.0,0.0,0.0,0.0,0.0,0.0,0.0,0.0,0.0,0.0,0.0,0.0,0.0,0.0,0.0,0.0,0.0,0.0,0.0,0.0,0.0,0.0,0.0,0.0,0.0,0.0,0.0,0.0,0.0,0.0,0.0,0.0,0.0,0.0,0.0,0.0,0.0,0.0,0.0,0.0,0.0,0.0,0.0,0.0,0.0,0.0,0.0,0.0,0.0,0.0,0.0,0.0,0.0,0.0,0.0,0.0,0.0,0.0,0.0,0.0,0.0,0.0,0.0,0.0,0.0,0.0,0.0,0.0,0.0,0.0,0.0,0.0,0.0,0.0,0.0,0.0,0.0,0.0,0.0,0.0,0.0,0.0,0.0,0.0,0.0,0.0,0.0,0.0,0.0,0.0,0.0,0.0,0.0,0.0,0.0,0.0,0.0,0.0,0.0,0.0,0.0,0.0,0.0,0.0,0.0,0.0,0.0,0.0,0.0,0.0,0.0,0.0,0.0,0.0,0.0,0.0,0.0,0.0,0.0,0.0,0.0,0.0,0.0,0.0,0.0,0.0,0.0,0.0,0.0,0.0,0.0,0.0,0.0,0.0,0.0,0.0,0.0,0.0,0.0,0.0,0.0,0.0,0.0,0.0,0.0,0.0,0.0,0.0,0.0,0.0,0.0,0.0,0.0,0.0,0.0,0.0,0.0,0.0,0.0,0.0,0.0,0.0,0.0,0.0,0.0,0.0,0.0,0.0,0.0,0.0,0.0,0.0,0.0,0.0,0.0,0.0,0.0,0.0,0.0,0.0,0.0,0.0,0.0,0.0,0.0,0.0,0.0,0.0,0.0,0.0,0.0,0.0,0.0,0.0,0.0,0.0,0.0,0.0,0.0,0.0,0.0,0.0,0.0,0.0,0.0,0.0,0.0,0.0,0.0,0.0,0.0
0.051640280680458575,0.051678749572643096,0.051662626833903665,0.05137293327087136,0.05056961939453641,0.049227923282944036,0.047383885952628726,0.04518093885261647,0.04283068034768408,0.040490749502712926,0.038420301824180575,0.036717909040878904,0.03537470807054448,0.03428842742449679,0.03322750448309195,0.03212497923700655,0.030867155389383137,0.029409889022886878,0.027790643925073445,0.02607936929727035,0.024438644594244514,0.023029878827600055,0.021969848472558753,0.0212928604256501,0.020941147268711758,0.02072637804947848,0.020528956992007793,0.02025873112121174,0.019872892911305524,0.019293600863816693,0.018663838299028183,0.018174644392946464,0.01804472330817791,0.018452925396960945,0.019292943764652883,0.02071176191795747,0.022640169593724894,0.024937728402472083,0.02741796108309913,0.029658716003009036,0.03169875672235519,0.033493923586993886,0.03504983445497765,0.03638299676923731,0.03723371202484721,0.03782228389549034,0.03821314962845851,0.0384908583909077,0.03874912606637851,0.038903794110864406,0.03918275154764633,0.03965240291249655,0.040318958167371126,0.041115255363519704,0.04182895855129593,0.042396383234732916,0.042697518693516165,0.04268327338045662,0.04240773033587843,0.04197525218157731,0.04168244982120186,0.0,0.0,0.0,0.0,0.0,0.0,0.0,0.0,0.0,0.0,0.0,0.0,0.0,0.0,0.0,0.0,0.0,0.0,0.0,0.0,0.0,0.0,0.0,0.0,0.0,0.0,0.0,0.0,0.0,0.0,0.0,0.0,0.0,0.0,0.0,0.0,0.0,0.0,0.0,0.0,0.0,0.0,0.0,0.0,0.0,0.0,0.0,0.0,0.0,0.0,0.0,0.0,0.0,0.0,0.0,0.0,0.0,0.0,0.0,0.0,0.0,0.0,0.0,0.0,0.0,0.0,0.0,0.0,0.0,0.0,0.0,0.0,0.0,0.0,0.0,0.0,0.0,0.0,0.0,0.0,0.0,0.0,0.0,0.0,0.0,0.0,0.0,0.0,0.0,0.0,0.0,0.0,0.0,0.0,0.0,0.0,0.0,0.0,0.0,0.0,0.0,0.0,0.0,0.0,0.0,0.0,0.0,0.0,0.0,0.0,0.0,0.0,0.0,0.0,0.0,0.0,0.0,0.0,0.0,0.0,0.0,0.0,0.0,0.0,0.0,0.0,0.0,0.0,0.0,0.0,0.0,0.0,0.0,0.0,0.0,0.0,0.0,0.0,0.0,0.0,0.0,0.0,0.0,0.0,0.0,0.0,0.0,0.0,0.0,0.0,0.0,0.0,0.0,0.0,0.0,0.0,0.0,0.0,0.0,0.0,0.0,0.0,0.0,0.0,0.0,0.0,0.0,0.0,0.0,0.0,0.0,0.0,0.0,0.0,0.0,0.0,0.0,0.0,0.0,0.0,0.0,0.0,0.0,0.0,0.0,0.0,0.0,0.0,0.0,0.0,0.0,0.0,0.0,0.0,0.0,0.0,0.0,0.0,0.0,0.0,0.0,0.0,0.0,0.0,0.0,0.0,0.0,0.0,0.0,0.0,0.0,0.0,0.0,0.0,0.0,0.0,0.0,0.0,0.0,0.0,0.0,0.0,0.0,0.0,0.0,0.0,0.0,0.0,0.0,0.0,0.0,0.0,0.0,0.0,0.0,0.0,0.0,0.0,0.0
0.03965240291249655,0.040318958167371126,0.041115255363519704,0.04182895855129593,0.042396383234732916,0.042697518693516165,0.04268327338045662,0.04240773033587843,0.04197525218157731,0.04168244982120186,0.04177447481162558,0.0424298379367891,0.04370020530823715,0.0454547206341056,0.04748758321630941,0.049471627291780264,0.05109499731718935,0.05217744162036758,0.05274857273438911,0.05318365109270097,0.05410152756408122,0.05630989111064452,0.06065467793249802,0.06781022337781693,0.0781570688688981,0.09156926226727578,0.10739437512797897,0.12452890538325363,0.1415951183212528,0.15726760862561387,0.17050702369912912,0.18082448432459855,0.18840313283400922,0.1940419505933532,0.19897806874225893,0.2044944983737229,0.211552381740505,0.2204634159169585,0.23070336291009394,0.24096980350360941,0.24936352292327552,0.2538092866411628,0.2525236989999078,0.24443152727497092,0.22946079814769957,0.20853821002312314,0.18345101708951156,0.15650899290612008,0.13010218294643047,0.10632167608321101,0.08655594980847446,0.07136241217098906,0.060494286812332376,0.05306837472981147,0.04791538867097356,0.0437938592918726,0.03969596337493894,0.035025608942089476,0.029628702099911648,0.023830943878145477,0.018169057487276086,0.0,0.0,0.0,0.0,0.0,0.0,0.0,0.0,0.0,0.0,0.0,0.0,0.0,0.0,0.0,0.0,0.0,0.0,0.0,0.0,0.0,0.0,0.0,0.0,0.0,0.0,0.0,0.0,0.0,0.0,0.0,0.0,0.0,0.0,0.0,0.0,0.0,0.0,0.0,0.0,0.0,0.0,0.0,0.0,0.0,0.0,0.0,0.0,0.0,0.0,0.0,0.0,0.0,0.0,0.0,0.0,0.0,0.0,0.0,0.0,0.0,0.0,0.0,0.0,0.0,0.0,0.0,0.0,0.0,0.0,0.0,0.0,0.0,0.0,0.0,0.0,0.0,0.0,0.0,0.0,0.0,0.0,0.0,0.0,0.0,0.0,0.0,0.0,0.0,0.0,0.0,0.0,0.0,0.0,0.0,0.0,0.0,0.0,0.0,0.0,0.0,0.0,0.0,0.0,0.0,0.0,0.0,0.0,0.0,0.0,0.0,0.0,0.0,0.0,0.0,0.0,0.0,0.0,0.0,0.0,0.0,0.0,0.0,0.0,0.0,0.0,0.0,0.0,0.0,0.0,0.0,0.0,0.0,0.0,0.0,0.0,0.0,0.0,0.0,0.0,0.0,0.0,0.0,0.0,0.0,0.0,0.0,0.0,0.0,0.0,0.0,0.0,0.0,0.0,0.0,0.0,0.0,0.0,0.0,0.0,0.0,0.0,0.0,0.0,0.0,0.0,0.0,0.0,0.0,0.0,0.0,0.0,0.0,0.0,0.0,0.0,0.0,0.0,0.0,0.0,0.0,0.0,0.0,0.0,0.0,0.0,0.0,0.0,0.0,0.0,0.0,0.0,0.0,0.0,0.0,0.0,0.0,0.0,0.0,0.0,0.0,0.0,0.0,0.0,0.0,0.0,0.0,0.0,0.0,0.0,0.0,0.0,0.0,0.0,0.0,0.0,0.0,0.0,0.0,0.0,0.0,0.0,0.0,0.0,0.0,0.0,0.0,0.0,0.0,0.0,0.0,0.0,0.0,0.0,0.0,0.0,0.0,0.0,0.0
0.07136241217098906,0.060494286812332376,0.05306837472981147,0.04791538867097356,0.0437938592918726,0.03969596337493894,0.035025608942089476,0.029628702099911648,0.023830943878145477,0.018169057487276086,0.013246399504811799,0.009556931071846563,0.00732118887097069,0.006562605937727427,0.0069873941048391305,0.008124893979706565,0.00945467632352145,0.010478539163066103,0.010985093408721454,0.010891545962290248,0.010283643745243558,0.009352421575196338,0.008246483201076656,0.007223939543293336,0.006374183588803002,0.005690916924794902,0.005101563282214119,0.004406670829774847,0.0036774382467102125,0.002863206580053516,0.0019299887103695543,0.0008507049892319023,-0.0005498224664361702,-0.0021039124886849483,-0.003873359346968467,-0.0059104194860898135,-0.00820372944099724,-0.010799716888941232,-0.013240258600646563,-0.015269877206360654,-0.016659865478895503,-0.017258163871226383,-0.017204242425575184,-0.01631723201050587,-0.014828571076307643,-0.01305387794840589,-0.011294619869490213,-0.009873177143796426,-0.008668948545763708,-0.007613076009341274,-0.006558344407041721,-0.005331075867754043,-0.003851335920768889,-0.0019655024161884527,0.0003051169525563421,0.0028484961630190027,0.005498765124970115,0.008030616792318448,0.010382005352698492,0.012511997997808234,0.014460026873900628,0.0,0.0,0.0,0.0,0.0,0.0,0.0,0.0,0.0,0.0,0.0,0.0,0.0,0.0,0.0,0.0,0.0,0.0,0.0,0.0,0.0,0.0,0.0,0.0,0.0,0.0,0.0,0.0,0.0,0.0,0.0,0.0,0.0,0.0,0.0,0.0,0.0,0.0,0.0,0.0,0.0,0.0,0.0,0.0,0.0,0.0,0.0,0.0,0.0,0.0,0.0,0.0,0.0,0.0,0.0,0.0,0.0,0.0,0.0,0.0,0.0,0.0,0.0,0.0,0.0,0.0,0.0,0.0,0.0,0.0,0.0,0.0,0.0,0.0,0.0,0.0,0.0,0.0,0.0,0.0,0.0,0.0,0.0,0.0,0.0,0.0,0.0,0.0,0.0,0.0,0.0,0.0,0.0,0.0,0.0,0.0,0.0,0.0,0.0,0.0,0.0,0.0,0.0,0.0,0.0,0.0,0.0,0.0,0.0,0.0,0.0,0.0,0.0,0.0,0.0,0.0,0.0,0.0,0.0,0.0,0.0,0.0,0.0,0.0,0.0,0.0,0.0,0.0,0.0,0.0,0.0,0.0,0.0,0.0,0.0,0.0,0.0,0.0,0.0,0.0,0.0,0.0,0.0,0.0,0.0,0.0,0.0,0.0,0.0,0.0,0.0,0.0,0.0,0.0,0.0,0.0,0.0,0.0,0.0,0.0,0.0,0.0,0.0,0.0,0.0,0.0,0.0,0.0,0.0,0.0,0.0,0.0,0.0,0.0,0.0,0.0,0.0,0.0,0.0,0.0,0.0,0.0,0.0,0.0,0.0,0.0,0.0,0.0,0.0,0.0,0.0,0.0,0.0,0.0,0.0,0.0,0.0,0.0,0.0,0.0,0.0,0.0,0.0,0.0,0.0,0.0,0.0,0.0,0.0,0.0,0.0,0.0,0.0,0.0,0.0,0.0,0.0,0.0,0.0,0.0,0.0,0.0,0.0,0.0,0.0,0.0,0.0,0.0,0.0,0.0,0.0,0.0,0.0,0.0,0.0,0.0,0.0,0.0,0.0
-0.005331075867754043,-0.003851335920768889,-0.0019655024161884527,0.0003051169525563421,0.0028484961630190027,0.005498765124970115,0.008030616792318448,0.010382005352698492,0.012511997997808234,0.014460026873900628,0.01632860611769427,0.018202177023235018,0.020245084159692867,0.022545892174758896,0.025120747425327876,0.027902579978717822,0.03070547694123622,0.03339676343270518,0.03581948943392355,0.03786108848779117,0.03947655383974137,0.04064659673178298,0.04150785492801495,0.04220474477900723,0.042881428816112635,0.043641461917506195,0.04451727566703747,0.04547402599590529,0.04641465866624574,0.04722253003140687,0.047806369995271006,0.04813571017843227,0.04825579415943853,0.04827007622673155,0.04830176148129635,0.04844447450620179,0.04872548522113008,0.04907299263748507,0.04935267341192708,0.04940185093669977,0.049082579017132574,0.04833538247727809,0.04716481720441028,0.04567167936749393,0.04399775841740829,0.042278174435783,0.04061405164698948,0.03904680937393594,0.03761439307458495,0.03638214680390153,0.03547376985443342,0.03507181077305755,0.035361103317654255,0.036462434987872,0.038342321686881786,0.040761994189701535,0.04329153258308809,0.0454168990076996,0.04668095831896582,0.04685450947932356,0.04605021852496964,0.0,0.0,0.0,0.0,0.0,0.0,0.0,0.0,0.0,0.0,0.0,0.0,0.0,0.0,0.0,0.0,0.0,0.0,0.0,0.0,0.0,0.0,0.0,0.0,0.0,0.0,0.0,0.0,0.0,0.0,0.0,0.0,0.0,0.0,0.0,0.0,0.0,0.0,0.0,0.0,0.0,0.0,0.0,0.0,0.0,0.0,0.0,0.0,0.0,0.0,0.0,0.0,0.0,0.0,0.0,0.0,0.0,0.0,0.0,0.0,0.0,0.0,0.0,0.0,0.0,0.0,0.0,0.0,0.0,0.0,0.0,0.0,0.0,0.0,0.0,0.0,0.0,0.0,0.0,0.0,0.0,0.0,0.0,0.0,0.0,0.0,0.0,0.0,0.0,0.0,0.0,0.0,0.0,0.0,0.0,0.0,0.0,0.0,0.0,0.0,0.0,0.0,0.0,0.0,0.0,0.0,0.0,0.0,0.0,0.0,0.0,0.0,0.0,0.0,0.0,0.0,0.0,0.0,0.0,0.0,0.0,0.0,0.0,0.0,0.0,0.0,0.0,0.0,0.0,0.0,0.0,0.0,0.0,0.0,0.0,0.0,0.0,0.0,0.0,0.0,0.0,0.0,0.0,0.0,0.0,0.0,0.0,0.0,0.0,0.0,0.0,0.0,0.0,0.0,0.0,0.0,0.0,0.0,0.0,0.0,0.0,0.0,0.0,0.0,0.0,0.0,0.0,0.0,0.0,0.0,0.0,0.0,0.0,0.0,0.0,0.0,0.0,0.0,0.0,0.0,0.0,0.0,0.0,0.0,0.0,0.0,0.0,0.0,0.0,0.0,0.0,0.0,0.0,0.0,0.0,0.0,0.0,0.0,0.0,0.0,0.0,0.0,0.0,0.0,0.0,0.0,0.0,0.0,0.0,0.0,0.0,0.0,0.0,0.0,0.0,0.0,0.0,0.0,0.0,0.0,0.0,0.0,0.0,0.0,0.0,0.0,0.0,0.0,0.0,0.0,0.0,0.0,0.0,0.0,0.0,0.0,0.0,0.0,0.0
0.03507181077305755,0.035361103317654255,0.036462434987872,0.038342321686881786,0.040761994189701535,0.04329153258308809,0.0454168990076996,0.04668095831896582,0.04685450947932356,0.04605021852496964,0.04472233405093858,0.04357955284040138,0.04331908344890698,0.04438030673390139,0.04673311498497514,0.049781711597140565,0.05251247284311611,0.053678480793017,0.052180806319582246,0.04741601144498064,0.03948258910195239,0.029287012020006314,0.018254161054794018,0.008015266159097865,0.0,0.0,0.0,0.0,0.0,0.0,0.0,0.0,0.0,0.0,0.0,0.0,0.0,0.0,0.0,0.0,0.0,0.0,0.0,0.0,0.0,0.0,0.0,0.0,0.0,0.0,0.0,0.0,0.0,0.0,0.0,0.0,0.0,0.0,0.0,0.0,0.0,0.0,0.0,0.0,0.0,0.0,0.0,0.0,0.0,0.0,0.0,0.0,0.0,0.0,0.0,0.0,0.0,0.0,0.0,0.0,0.0,0.0,0.0,0.0,0.0,0.0,0.0,0.0,0.0,0.0,0.0,0.0,0.0,0.0,0.0,0.0,0.0,0.0,0.0,0.0,0.0,0.0,0.0,0.0,0.0,0.0,0.0,0.0,0.0,0.0,0.0,0.0,0.0,0.0,0.0,0.0,0.0,0.0,0.0,0.0,0.0,0.0,0.0,0.0,0.0,0.0,0.0,0.0,0.0,0.0,0.0,0.0,0.0,0.0,0.0,0.0,0.0,0.0,0.0,0.0,0.0,0.0,0.0,0.0,0.0,0.0,0.0,0.0,0.0,0.0,0.0,0.0,0.0,0.0,0.0,0.0,0.0,0.0,0.0,0.0,0.0,0.0,0.0,0.0,0.0,0.0,0.0,0.0,0.0,0.0,0.0,0.0,0.0,0.0,0.0,0.0,0.0,0.0,0.0,0.0,0.0,0.0,0.0,0.0,0.0,0.0,0.0,0.0,0.0,0.0,0.0,0.0,0.0,0.0,0.0,0.0,0.0,0.0,0.0,0.0,0.0,0.0,0.0,0.0,0.0,0.0,0.0,0.0,0.0,0.0,0.0,0.0,0.0,0.0,0.0,0.0,0.0,0.0,0.0,0.0,0.0,0.0,0.0,0.0,0.0,0.0,0.0,0.0,0.0,0.0,0.0,0.0,0.0,0.0,0.0,0.0,0.0,0.0,0.0,0.0,0.0,0.0,0.0,0.0,0.0,0.0,0.0,0.0,0.0,0.0,0.0,0.0,0.0,0.0,0.0,0.0,0.0,0.0,0.0,0.0,0.0,0.0,0.0,0.0,0.0,0.0,0.0,0.0,0.0,0.0,0.0,0.0,0.0,0.0,0.0,0.0,0.0,0.0,0.0,0.0,0.0,0.0,0.0,0.0,0.0,0.0,0.0,0.0,0.0,0.0,0.0,0.0,0.0,0.0,0.0,0.0,0.0,0.0,0.0,0.0
0.2314420678933781,0.18735501825296946,0.1393183643441301,0.09199123470161691,0.0496767966686469,0.015652154113969773,-0.008133753326584585,-0.02117075160731458,-0.02429725848316997,-0.01931239307124294,-0.008661357465165035,0.00503924976108772,0.019401835338773554,0.03253639790125231,0.04331895886408268,0.051300829616324845,0.0566508846597187,0.059974422284861675,0.062055358585783364,0.0637545535055822,0.06569757701191904,0.06821312489495897,0.07130824502788903,0.07465493195285272,0.07789083367451766,0.08054507441484038,0.08221347600355436,0.08264206777091639,0.08167726305561472,0.07954208219358877,0.07653302416569689,0.07302595686038064,0.06939753177270189,0.0658622954320105,0.06272102451076171,0.06007852489199674,0.0579237639631138,0.056152995774487395,0.05450810709712473,0.0529268815661834,0.05131366193425322,0.04963406819944286,0.04791005873470714,0.04602998833586165,0.04427465754336117,0.04267209109103466,0.041175544662076194,0.039667121694926886,0.03774975726511773,0.0356062400515707,0.03310283644868756,0.030176937482027957,0.026895423857835346,0.02327804200570868,0.0198766302349535,0.01706198557884306,0.01511203203133471,0.014123726020743809,0.01382512439667233,0.014025112695044174,0.014393777328849597,0.014628743575156405,0.014543026234662314,0.013756255340620527,0.012818897406284469,0.012295987282268639,0.012835456649843924,0.014962326448580825,0.01830547334612855,0.023299028794856347,0.029766406460248498,0.03733369056652186,0.04548476347518,0.05327432037855736,0.060480763169047276,0.06676957371617591,0.07195881172093266,0.07600720050177917,0.07887338693861455,0.08085804949312742,0.08220575884182303,0.0831965262237614,0.08411565869828001,0.08511482341547381,0.08647250748627527,0.08822772533845304,0.0902456796644209,0.09222411689478081,0.0936687520167938,0.09424808857913075,0.09366224986693882,0.09184354854636868,0.08903897105320466,0.08576673965173846,0.08293293420727296,0.08148614144785905,0.08227794612919018,0.08585382521162853,0.09225352729014702,0.10106193750959713,0.11134156959270351,0.1218931770495818,0.13159637402475136,0.13978210718193138,0.14668899016144885,0.1535847692804243,0.1627831672822981,0.17733892283787417,0.20044463318016464,0.23472235004068562,0.2813499817393739,0.3394293188644123,0.40567431739853094,0.4745577958942178,0.5389868786887142,0.5913192571317275,0.6246445031861957,0.6340097119591878,0.6173458701181913,0.5758736651168569,0.5139126365651128,0.43815295699120455,0.35652750440315645,0.2769171618121427,0.20602300288548436,0.1484198523072064,0.10619649231496886,0.07904529684712508,0.06472556666787715,0.059917021725280385,0.06085710313834521,0.06412087677918595,0.06712369776876848,0.06829825274623398,0.06723666471429866,0.06421685274989154,0.05994236205471519,0.05520209869041186,0.05053612003814906,0.04634886902974869,0.042613140728837554,0.03907752939789928,0.03543515772721363,0.03139638017762471,0.027094935021651806,0.022774390189750852,0.018826416585633724,0.0156682167640154,0.013499990002181307,0.012559152706034634,0.012719934595317296,0.013646222048761415,0.014886791904978398,0.015844303351878485,0.016363182247980907,0.01626183459615264,0.015494298404138917,0.01410536704594139,0.011982951794158437,0.009436116810056482,0.006512157924716589,0.0032433780861777705,-0.00029796250113582417,-0.004263557400480513,-0.007932897666317008,-0.011024296257067693,-0.013317287469791482,-0.014701292048213035,-0.015646202203420445,-0.01565792844570986,-0.015108057115942394,-0.014456768042151283,-0.014072908516582707,-0.014374449837157636,-0.014813886847512265,-0.01505923076862532,-0.014716751948810966,-0.013444524984952381,-0.011173774944651677,-0.0077789842571406205,-0.003460155289670378,0.0014301431391555309,0.006480827428475993,0.011209649778266618,0.015518878276907563,0.019380093180062636,0.02292894514473082,0.026406179841904368,0.02996004748433414,0.03391581324402556,0.038381936689327066,0.043318941151648784,0.04855108358305651,0.0537046454622854,0.05861651184419589,0.06310834368976438,0.06711552841647214,0.07069598732420865,0.0738965365701022,0.0,0.0,0.0,0.0,0.0,0.0,0.0,0.0,0.0,0.0,0.0,0.0,0.0,0.0,0.0,0.0,0.0,0.0,0.0,0.0,0.0,0.0,0.0,0.0,0.0,0.0,0.0,0.0,0.0,0.0,0.0,0.0,0.0,0.0,0.0,0.0,0.0,0.0,0.0,0.0,0.0,0.0,0.0,0.0,0.0,0.0,0.0,0.0,0.0,0.0,0.0,0.0,0.0,0.0,0.0,0.0,0.0,0.0,0.0,0.0,0.0,0.0,0.0,0.0,0.0,0.0,0.0,0.0,0.0,0.0,0.0,0.0,0.0,0.0,0.0,0.0,0.0,0.0,0.0,0.0,0.0,0.0,0.0,0.0,0.0,0.0,0.0,0.0,0.0,0.0,0.0,0.0,0.0,0.0,0.0,0.0,0.0,0.0,0.0,0.0,0.0
