0.9051344746926864,0.9444127808811622,0.9559625668722741,0.9366230308612709,0.8879753941934706,0.8146530788347704,0.724152685713671,0.6257056657183889,0.5283515468596954,0.44135223845124527,0.37141279357137835,0.32246642665008046,0.29544876456450375,0.28797755370033157,0.29681960271126007,0.3170334292027684,0.3433869214177891,0.3711399611957341,0.3959995665708287,0.4163169971035201,0.43125180963746734,0.4410850952629788,0.44683115782696453,0.44917899942360634,0.45012517594634377,0.4507630010998571,0.45174110806999046,0.45326107505324364,0.45453994078944254,0.45600225753969037,0.4574290676202661,0.4586717204255453,0.4596909922795228,0.4598956287030701,0.4601571713042493,0.4606840044725357,0.46159017152484094,0.4628588600297957,0.4636953721052906,0.46461873619118776,0.46545397671276406,0.4659935819112726,0.46602672778006865,0.46472043204573554,0.4627059774507887,0.46006143446858117,0.4569373356192243,0.45354926724014066,0.44937322949495073,0.44572325593155393,0.4429689859376878,0.4413738304217058,0.44107180670021273,0.4411169451771308,0.44262284800589047,0.445327548766164,0.44879396014312756,0.45253327137295485,0.45525487755371974,0.4577221868507008,0.45994293203961545,0.0,0.0,0.0,0.0,0.0,0.0,0.0,0.0,0.0,0.0,0.0,0.0,0.0,0.0,0.0,0.0,0.0,0.0,0.0,0.0,0.0,0.0,0.0,0.0,0.0,0.0,0.0,0.0,0.0,0.0,0.0,0.0,0.0,0.0,0.0,0.0,0.0,0.0,0.0,0.0,0.0,0.0,0.0,0.0,0.0,0.0,0.0,0.0,0.0,0.0,0.0,0.0,0.0,0.0,0.0,0.0,0.0,0.0,0.0,0.0,0.0,0.0,0.0,0.0,0.0,0.0,0.0,0.0,0.0,0.0,0.0,0.0,0.0,0.0,0.0,0.0,0.0,0.0,0.0,0.0,0.0,0.0,0.0,0.0,0.0,0.0,0.0,0.0,0.0,0.0,0.0,0.0,0.0,0.0,0.0,0.0,0.0,0.0,0.0,0.0,0.0,0.0,0.0,0.0,0.0,0.0,0.0,0.0,0.0,0.0,0.0,0.0,0.0,0.0,0.0,0.0,0.0,0.0,0.0,0.0,0.0,0.0,0.0,0.0,0.0,0.0,0.0,0.0,0.0,0.0,0.0,0.0,0.0,0.0,0.0,0.0,0.0,0.0,0.0,0.0,0.0,0.0,0.0,0.0,0.0,0.0,0.0,0.0,0.0,0.0,0.0,0.0,0.0,0.0,0.0,0.0,0.0,0.0,0.0,0.0,0.0,0.0,0.0,0.0,0.0,0.0,0.0,0.0,0.0,0.0,0.0,0.0,0.0,0.0,0.0,0.0,0.0,0.0,0.0,0.0,0.0,0.0,0.0,0.0,0.0,0.0,0.0,0.0,0.0,0.0,0.0,0.0,0.0,0.0,0.0,0.0,0.0,0.0,0.0,0.0,0.0,0.0,0.0,0.0,0.0,0.0,0.0,0.0,0.0,0.0,0.0,0.0,0.0,0.0,0.0,0.0,0.0,0.0,0.0,0.0,0.0,0.0,0.0,0.0,0.0,0.0,0.0,0.0,0.0,0.0,0.0,0.0,0.0,0.0,0.0,0.0,0.0,0.0,0.0
0.3570007149319191,0.36227071591745025,0.3701219974828684,0.3784187013840663,0.385065999424716,0.3898499457249605,0.3925547421285385,0.393416941048944,0.3929453950999816,0.39122296437969345,0.3894367784565979,0.3879733281593132,0.3869652592327,0.38633164375786605,0.3853517198297168,0.3844145497938571,0.3832957947997728,0.381783977038682,0.37971789241575055,0.37650754896734995,0.3727790238709055,0.3685897567287118,0.36401238985172946,0.3591639324122109,0.3537252794905515,0.348626955743531,0.34421552623094004,0.3407994253652124,0.3386099724086712,0.33724300478704067,0.3373412432931613,0.3387393246499145,0.34108384852435514,0.3439026050705403,0.3461377752281959,0.34809185310269575,0.3494102425384524,0.3498227086231362,0.34919523773240946,0.3469621315292378,0.34412435307055683,0.340891652628091,0.3374390630893005,0.3339223380665104,0.33000785978017944,0.3264950492456365,0.32346373595726996,0.3208834033053339,0.31864943840061133,0.3162533298556368,0.31406295879750346,0.3119959755573814,0.30997808404922234,0.3079620456885008,0.30556875108130266,0.3033048475095717,0.3011915475569811,0.2992020335322,0.29727465297639016,0.29497345762894195,0.2927132478594921,0.0,0.0,0.0,0.0,0.0,0.0,0.0,0.0,0.0,0.0,0.0,0.0,0.0,0.0,0.0,0.0,0.0,0.0,0.0,0.0,0.0,0.0,0.0,0.0,0.0,0.0,0.0,0.0,0.0,0.0,0.0,0.0,0.0,0.0,0.0,0.0,0.0,0.0,0.0,0.0,0.0,0.0,0.0,0.0,0.0,0.0,0.0,0.0,0.0,0.0,0.0,0.0,0.0,0.0,0.0,0.0,0.0,0.0,0.0,0.0,0.0,0.0,0.0,0.0,0.0,0.0,0.0,0.0,0.0,0.0,0.0,0.0,0.0,0.0,0.0,0.0,0.0,0.0,0.0,0.0,0.0,0.0,0.0,0.0,0.0,0.0,0.0,0.0,0.0,0.0,0.0,0.0,0.0,0.0,0.0,0.0,0.0,0.0,0.0,0.0,0.0,0.0,0.0,0.0,0.0,0.0,0.0,0.0,0.0,0.0,0.0,0.0,0.0,0.0,0.0,0.0,0.0,0.0,0.0,0.0,0.0,0.0,0.0,0.0,0.0,0.0,0.0,0.0,0.0,0.0,0.0,0.0,0.0,0.0,0.0,0.0,0.0,0.0,0.0,0.0,0.0,0.0,0.0,0.0,0.0,0.0,0.0,0.0,0.0,0.0,0.0,0.0,0.0,0.0,0.0,0.0,0.0,0.0,0.0,0.0,0.0,0.0,0.0,0.0,0.0,0.0,0.0,0.0,0.0,0.0,0.0,0.0,0.0,0.0,0.0,0.0,0.0,0.0,0.0,0.0,0.0,0.0,0.0,0.0,0.0,0.0,0.0,0.0,0.0,0.0,0.0,0.0,0.0,0.0,0.0,0.0,0.0,0.0,0.0,0.0,0.0,0.0,0.0,0.0,0.0,0.0,0.0,0.0,0.0,0.0,0.0,0.0,0.0,0.0,0.0,0.0,0.0,0.0,0.0,0.0,0.0,0.0,0.0,0.0,0.0,0.0,0.0,0.0,0.0,0.0,0.0,0.0,0.0,0.0,0.0,0.0,0.0,0.0,0.0
0.5847963967526713,0.5673923102647201,0.5273292787786982,0.4682883354859961,0.396131274419491,0.3180093991561242,0.2411193638071468,0.1722794854489076,0.11631571905841219,0.075847547122232,0.05122240155957718,0.040652245081958714,0.041375215245055955,0.04964102351076023,0.06166318258974951,0.07420668153458407,0.08480992680822562,0.09244445592155211,0.09676767455273923,0.09811156739246604,0.09719096150959095,0.09468795268833116,0.09151593703760773,0.08812052324441172,0.08468673799870247,0.08123272684588885,0.07760919012786166,0.07404684161377313,0.07066634837568685,0.06766480871206604,0.06527449218218677,0.06357798995138689,0.06284763625963849,0.0630077512083314,0.0638166916423746,0.06492885089774648,0.06587271485562717,0.06650911311455002,0.06659213664286573,0.06596826949803045,0.0645832096133062,0.06237210407939161,0.05958951024200046,0.05630878078724682,0.05260653518373502,0.04859964739792643,0.04430021560993645,0.04032272946669811,0.03691298834743033,0.03428479547649417,0.03261608518254666,0.031763640709373694,0.032266634238647555,0.033899289889222126,0.03625014754262332,0.038845161251104245,0.041169059081069374,0.04315536777597324,0.04455193782929222,0.04520253435845524,0.04507423731966182,0.0,0.0,0.0,0.0,0.0,0.0,0.0,0.0,0.0,0.0,0.0,0.0,0.0,0.0,0.0,0.0,0.0,0.0,0.0,0.0,0.0,0.0,0.0,0.0,0.0,0.0,0.0,0.0,0.0,0.0,0.0,0.0,0.0,0.0,0.0,0.0,0.0,0.0,0.0,0.0,0.0,0.0,0.0,0.0,0.0,0.0,0.0,0.0,0.0,0.0,0.0,0.0,0.0,0.0,0.0,0.0,0.0,0.0,0.0,0.0,0.0,0.0,0.0,0.0,0.0,0.0,0.0,0.0,0.0,0.0,0.0,0.0,0.0,0.0,0.0,0.0,0.0,0.0,0.0,0.0,0.0,0.0,0.0,0.0,0.0,0.0,0.0,0.0,0.0,0.0,0.0,0.0,0.0,0.0,0.0,0.0,0.0,0.0,0.0,0.0,0.0,0.0,0.0,0.0,0.0,0.0,0.0,0.0,0.0,0.0,0.0,0.0,0.0,0.0,0.0,0.0,0.0,0.0,0.0,0.0,0.0,0.0,0.0,0.0,0.0,0.0,0.0,0.0,0.0,0.0,0.0,0.0,0.0,0.0,0.0,0.0,0.0,0.0,0.0,0.0,0.0,0.0,0.0,0.0,0.0,0.0,0.0,0.0,0.0,0.0,0.0,0.0,0.0,0.0,0.0,0.0,0.0,0.0,0.0,0.0,0.0,0.0,0.0,0.0,0.0,0.0,0.0,0.0,0.0,0.0,0.0,0.0,0.0,0.0,0.0,0.0,0.0,0.0,0.0,0.0,0.0,0.0,0.0,0.0,0.0,0.0,0.0,0.0,0.0,0.0,0.0,0.0,0.0,0.0,0.0,0.0,0.0,0.0,0.0,0.0,0.0,0.0,0.0,0.0,0.0,0.0,0.0,0.0,0.0,0.0,0.0,0.0,0.0,0.0,0.0,0.0,0.0,0.0,0.0,0.0,0.0,0.0,0.0,0.0,0.0,0.0,0.0,0.0,0.0,0.0,0.0,0.0,0.0,0.0,0.0,0.0,0.0,0.0,0.0
0.34542039338961367,0.3549038686575843,0.33820490792886265,0.2968848051236774,0.23525302937220907,0.15986261897463352,0.07848922193487375,-0.0013529911808967455,-0.072632663431285,-0.13040992366955048,-0.17217284421221876,-0.19792542478783684,-0.2101881850224172,-0.21223891212501145,-0.20807853882806446,-0.20139888906163741,-0.19499439157653928,-0.19086142182051857,-0.18914976709154074,-0.1893458936372739,-0.19056489434882834,-0.19206335836524172,-0.19397211665248762,-0.19621790398756014,-0.19921041350406105,-0.2033250564372715,-0.20861007104526805,-0.2150351328315756,-0.22127501429438878,-0.22586683898002458,-0.2274303875042002,-0.22515678372529438,-0.21960400332044389,-0.2114241243141913,-0.20206252913530318,-0.1930761038322987,-0.1856139057865039,-0.18053662522375427,-0.17653931720040558,-0.17140135449855598,-0.1622019677994699,-0.14607102784771342,-0.12165034320704224,-0.0877265738605912,-0.04486664183536722,0.004905597044598489,0.058405149338733975,0.11114964810989551,0.16007075143269395,0.2024537555615089,0.23679020044620167,0.26288132652518137,0.2810013082860113,0.293666512453802,0.30315338341349557,0.3116090965031685,0.3206447302649596,0.33056646868297296,0.341891466993734,0.35419682064428765,0.3666787846306275,0.0,0.0,0.0,0.0,0.0,0.0,0.0,0.0,0.0,0.0,0.0,0.0,0.0,0.0,0.0,0.0,0.0,0.0,0.0,0.0,0.0,0.0,0.0,0.0,0.0,0.0,0.0,0.0,0.0,0.0,0.0,0.0,0.0,0.0,0.0,0.0,0.0,0.0,0.0,0.0,0.0,0.0,0.0,0.0,0.0,0.0,0.0,0.0,0.0,0.0,0.0,0.0,0.0,0.0,0.0,0.0,0.0,0.0,0.0,0.0,0.0,0.0,0.0,0.0,0.0,0.0,0.0,0.0,0.0,0.0,0.0,0.0,0.0,0.0,0.0,0.0,0.0,0.0,0.0,0.0,0.0,0.0,0.0,0.0,0.0,0.0,0.0,0.0,0.0,0.0,0.0,0.0,0.0,0.0,0.0,0.0,0.0,0.0,0.0,0.0,0.0,0.0,0.0,0.0,0.0,0.0,0.0,0.0,0.0,0.0,0.0,0.0,0.0,0.0,0.0,0.0,0.0,0.0,0.0,0.0,0.0,0.0,0.0,0.0,0.0,0.0,0.0,0.0,0.0,0.0,0.0,0.0,0.0,0.0,0.0,0.0,0.0,0.0,0.0,0.0,0.0,0.0,0.0,0.0,0.0,0.0,0.0,0.0,0.0,0.0,0.0,0.0,0.0,0.0,0.0,0.0,0.0,0.0,0.0,0.0,0.0,0.0,0.0,0.0,0.0,0.0,0.0,0.0,0.0,0.0,0.0,0.0,0.0,0.0,0.0,0.0,0.0,0.0,0.0,0.0,0.0,0.0,0.0,0.0,0.0,0.0,0.0,0.0,0.0,0.0,0.0,0.0,0.0,0.0,0.0,0.0,0.0,0.0,0.0,0.0,0.0,0.0,0.0,0.0,0.0,0.0,0.0,0.0,0.0,0.0,0.0,0.0,0.0,0.0,0.0,0.0,0.0,0.0,0.0,0.0,0.0,0.0,0.0,0.0,0.0,0.0,0.0,0.0,0.0,0.0,0.0,0.0,0.0,0.0,0.0,0.0,0.0,0.0,0.0
0.293666512453802,0.30315338341349557,0.3116090965031685,0.3206447302649596,0.33056646868297296,0.341891466993734,0.35419682064428765,0.3666787846306275,0.3784081340047378,0.3882087120964522,0.3958472508766477,0.4015626538838262,0.4060327481170461,0.41012306648322044,0.4142687496460389,0.41920933526111304,0.4253892115874752,0.43297413830331943,0.4418379989617031,0.4512802984413521,0.46098149948658135,0.47063525123107525,0.4800303972631566,0.4890369083083709,0.497315693434881,0.505217782603284,0.5134903826558215,0.523326701123517,0.5362358176550386,0.5534892779550686,0.5765234640976741,0.6061727609890403,0.6422363693202794,0.6831386202554188,0.7255463890213123,0.7655387834163428,0.7987596742298285,0.8212258995370184,0.830041422855799,0.8235912060481345,0.802769639973698,0.7702794889444354,0.7302136821270914,0.6872591082521085,0.6454259913383006,0.6086119999867731,0.579142757583913,0.5579045937185427,0.544476793648418,0.5369832696648634,0.5340982931105147,0.5340012615629663,0.5351307238335241,0.536342426661137,0.5364017968513908,0.5355744215693011,0.5338661606758882,0.5313793614559879,0.5282080596738561,0.52383184235935,0.5189052801696034,0.0,0.0,0.0,0.0,0.0,0.0,0.0,0.0,0.0,0.0,0.0,0.0,0.0,0.0,0.0,0.0,0.0,0.0,0.0,0.0,0.0,0.0,0.0,0.0,0.0,0.0,0.0,0.0,0.0,0.0,0.0,0.0,0.0,0.0,0.0,0.0,0.0,0.0,0.0,0.0,0.0,0.0,0.0,0.0,0.0,0.0,0.0,0.0,0.0,0.0,0.0,0.0,0.0,0.0,0.0,0.0,0.0,0.0,0.0,0.0,0.0,0.0,0.0,0.0,0.0,0.0,0.0,0.0,0.0,0.0,0.0,0.0,0.0,0.0,0.0,0.0,0.0,0.0,0.0,0.0,0.0,0.0,0.0,0.0,0.0,0.0,0.0,0.0,0.0,0.0,0.0,0.0,0.0,0.0,0.0,0.0,0.0,0.0,0.0,0.0,0.0,0.0,0.0,0.0,0.0,0.0,0.0,0.0,0.0,0.0,0.0,0.0,0.0,0.0,0.0,0.0,0.0,0.0,0.0,0.0,0.0,0.0,0.0,0.0,0.0,0.0,0.0,0.0,0.0,0.0,0.0,0.0,0.0,0.0,0.0,0.0,0.0,0.0,0.0,0.0,0.0,0.0,0.0,0.0,0.0,0.0,0.0,0.0,0.0,0.0,0.0,0.0,0.0,0.0,0.0,0.0,0.0,0.0,0.0,0.0,0.0,0.0,0.0,0.0,0.0,0.0,0.0,0.0,0.0,0.0,0.0,0.0,0.0,0.0,0.0,0.0,0.0,0.0,0.0,0.0,0.0,0.0,0.0,0.0,0.0,0.0,0.0,0.0,0.0,0.0,0.0,0.0,0.0,0.0,0.0,0.0,0.0,0.0,0.0,0.0,0.0,0.0,0.0,0.0,0.0,0.0,0.0,0.0,0.0,0.0,0.0,0.0,0.0,0.0,0.0,0.0,0.0,0.0,0.0,0.0,0.0,0.0,0.0,0.0,0.0,0.0,0.0,0.0,0.0,0.0,0.0,0.0,0.0,0.0,0.0,0.0,0.0,0.0,0.0
0.6844950901563827,0.6933797354215223,0.6726372563761951,0.6236618588217634,0.5510257337598513,0.46203914921584766,0.36562676042736925,0.27077576343985904,0.18591823865678525,0.1170955586287957,0.06760060385937929,0.037873785433216296,0.025649149003118935,0.027401682043898264,0.0384316853901938,0.05401743711628123,0.07015028493693622,0.08378992276921399,0.09372162902342746,0.09966889877687833,0.10222054251793225,0.1024267844406561,0.10120923008480788,0.09973749871828222,0.09855889056420501,0.09782448845588203,0.09739750495994733,0.0968273488965642,0.09611005121268999,0.09511951578248183,0.09384640973630833,0.09236822547923856,0.09061966533180402,0.0888889258041892,0.0871827976745885,0.08543864963920433,0.08358097808110362,0.08142005954303644,0.0792644020361709,0.07729489969390597,0.07573582656382892,0.07479373068296868,0.07442007539329284,0.07483784383656486,0.07587836222395906,0.07724878186421252,0.07862786512821429,0.07947134556809306,0.08016921487413273,0.08077262388567966,0.08144979634227156,0.0824619995734599,0.08366440557093474,0.085992721539868,0.08942908909679777,0.0937002469042398,0.09837829775953527,0.10273437400060147,0.10676774823719858,0.1101570042784803,0.11268858722265625,0.0,0.0,0.0,0.0,0.0,0.0,0.0,0.0,0.0,0.0,0.0,0.0,0.0,0.0,0.0,0.0,0.0,0.0,0.0,0.0,0.0,0.0,0.0,0.0,0.0,0.0,0.0,0.0,0.0,0.0,0.0,0.0,0.0,0.0,0.0,0.0,0.0,0.0,0.0,0.0,0.0,0.0,0.0,0.0,0.0,0.0,0.0,0.0,0.0,0.0,0.0,0.0,0.0,0.0,0.0,0.0,0.0,0.0,0.0,0.0,0.0,0.0,0.0,0.0,0.0,0.0,0.0,0.0,0.0,0.0,0.0,0.0,0.0,0.0,0.0,0.0,0.0,0.0,0.0,0.0,0.0,0.0,0.0,0.0,0.0,0.0,0.0,0.0,0.0,0.0,0.0,0.0,0.0,0.0,0.0,0.0,0.0,0.0,0.0,0.0,0.0,0.0,0.0,0.0,0.0,0.0,0.0,0.0,0.0,0.0,0.0,0.0,0.0,0.0,0.0,0.0,0.0,0.0,0.0,0.0,0.0,0.0,0.0,0.0,0.0,0.0,0.0,0.0,0.0,0.0,0.0,0.0,0.0,0.0,0.0,0.0,0.0,0.0,0.0,0.0,0.0,0.0,0.0,0.0,0.0,0.0,0.0,0.0,0.0,0.0,0.0,0.0,0.0,0.0,0.0,0.0,0.0,0.0,0.0,0.0,0.0,0.0,0.0,0.0,0.0,0.0,0.0,0.0,0.0,0.0,0.0,0.0,0.0,0.0,0.0,0.0,0.0,0.0,0.0,0.0,0.0,0.0,0.0,0.0,0.0,0.0,0.0,0.0,0.0,0.0,0.0,0.0,0.0,0.0,0.0,0.0,0.0,0.0,0.0,0.0,0.0,0.0,0.0,0.0,0.0,0.0,0.0,0.0,0.0,0.0,0.0,0.0,0.0,0.0,0.0,0.0,0.0,0.0,0.0,0.0,0.0,0.0,0.0,0.0,0.0,0.0,0.0,0.0,0.0,0.0,0.0,0.0,0.0,0.0,0.0,0.0,0.0,0.0,0.0
-0.020760986277876172,-0.01157055179269923,-0.0023419907811968884,0.005406537614658211,0.011103483382021547,0.014890362995158907,0.017417731616947048,0.01954955972700482,0.022005197582065643,0.02537182720301366,0.029848573264323462,0.03528249230888306,0.041252912573616636,0.04712645006453683,0.052451950147866674,0.05690042075375,0.06036675310364842,0.06295626542022845,0.06482831477674399,0.06637183027480968,0.067903034159935,0.06964097261829276,0.07166038974546414,0.0737289860186632,0.07580549525935718,0.07771767200497615,0.07929101795228825,0.08036451407069983,0.0805766155011755,0.08004577074856199,0.07885482797196487,0.07717796895865123,0.07525099794349727,0.07310946457353087,0.07129659773220154,0.07007551647787195,0.0696470512650831,0.07013748181629471,0.07136150663213525,0.07363346471642772,0.0767821398261071,0.08052823590561214,0.08454570923246024,0.08838781523576833,0.09196020648488963,0.09502927996705639,0.0974040725354094,0.09895393664862577,0.09959908902664154,0.0993853197178818,0.09846103067796969,0.09705591430607516,0.09544432030428522,0.09385943210132335,0.09257644294269561,0.0917843543763753,0.09157756607138069,0.09193470395994467,0.09265480785667671,0.09356205632487984,0.0943875031085593,0.0,0.0,0.0,0.0,0.0,0.0,0.0,0.0,0.0,0.0,0.0,0.0,0.0,0.0,0.0,0.0,0.0,0.0,0.0,0.0,0.0,0.0,0.0,0.0,0.0,0.0,0.0,0.0,0.0,0.0,0.0,0.0,0.0,0.0,0.0,0.0,0.0,0.0,0.0,0.0,0.0,0.0,0.0,0.0,0.0,0.0,0.0,0.0,0.0,0.0,0.0,0.0,0.0,0.0,0.0,0.0,0.0,0.0,0.0,0.0,0.0,0.0,0.0,0.0,0.0,0.0,0.0,0.0,0.0,0.0,0.0,0.0,0.0,0.0,0.0,0.0,0.0,0.0,0.0,0.0,0.0,0.0,0.0,0.0,0.0,0.0,0.0,0.0,0.0,0.0,0.0,0.0,0.0,0.0,0.0,0.0,0.0,0.0,0.0,0.0,0.0,0.0,0.0,0.0,0.0,0.0,0.0,0.0,0.0,0.0,0.0,0.0,0.0,0.0,0.0,0.0,0.0,0.0,0.0,0.0,0.0,0.0,0.0,0.0,0.0,0.0,0.0,0.0,0.0,0.0,0.0,0.0,0.0,0.0,0.0,0.0,0.0,0.0,0.0,0.0,0.0,0.0,0.0,0.0,0.0,0.0,0.0,0.0,0.0,0.0,0.0,0.0,0.0,0.0,0.0,0.0,0.0,0.0,0.0,0.0,0.0,0.0,0.0,0.0,0.0,0.0,0.0,0.0,0.0,0.0,0.0,0.0,0.0,0.0,0.0,0.0,0.0,0.0,0.0,0.0,0.0,0.0,0.0,0.0,0.0,0.0,0.0,0.0,0.0,0.0,0.0,0.0,0.0,0.0,0.0,0.0,0.0,0.0,0.0,0.0,0.0,0.0,0.0,0.0,0.0,0.0,0.0,0.0,0.0,0.0,0.0,0.0,0.0,0.0,0.0,0.0,0.0,0.0,0.0,0.0,0.0,0.0,0.0,0.0,0.0,0.0,0.0,0.0,0.0,0.0,0.0,0.0,0.0,0.0,0.0,0.0,0.0,0.0,0.0
0.2027790544894929,0.18102464351069858,0.1544046581037302,0.12566214256484604,0.09746155594525922,0.07230623194257647,0.05191711274405291,0.03717636526653939,0.028121043678842973,0.023961298562970745,0.023678539923921868,0.025912329383850793,0.029340265891919917,0.032878234867073704,0.03569833703978915,0.037557263707699275,0.03839867938259548,0.0383553615652698,0.037635426055304434,0.03635577421846555,0.03474468609243924,0.0328512420904612,0.030681067044501915,0.02825938376184471,0.02561120449949255,0.023046023618795666,0.020858936016343796,0.019375526280671917,0.018883341468384992,0.019483178476557075,0.021299857937890045,0.02418291259278341,0.027823381149467287,0.03181465333388332,0.03565267565247464,0.03906311880473238,0.04178741945500706,0.043688900426516436,0.04474596519938164,0.04494813797215679,0.04450585623560666,0.043570662457046064,0.0422944347357023,0.04082784950037584,0.039211162725516294,0.03779911321758495,0.03680095314341294,0.03643402126901001,0.03690973380137004,0.03823887097844005,0.040766463014684104,0.044447077164251586,0.04906591665700225,0.054260180078649606,0.05935611673426554,0.06407594519069085,0.06795359374571261,0.07057358187821736,0.07161062635592917,0.07062114316496103,0.06780807006977597,0.0,0.0,0.0,0.0,0.0,0.0,0.0,0.0,0.0,0.0,0.0,0.0,0.0,0.0,0.0,0.0,0.0,0.0,0.0,0.0,0.0,0.0,0.0,0.0,0.0,0.0,0.0,0.0,0.0,0.0,0.0,0.0,0.0,0.0,0.0,0.0,0.0,0.0,0.0,0.0,0.0,0.0,0.0,0.0,0.0,0.0,0.0,0.0,0.0,0.0,0.0,0.0,0.0,0.0,0.0,0.0,0.0,0.0,0.0,0.0,0.0,0.0,0.0,0.0,0.0,0.0,0.0,0.0,0.0,0.0,0.0,0.0,0.0,0.0,0.0,0.0,0.0,0.0,0.0,0.0,0.0,0.0,0.0,0.0,0.0,0.0,0.0,0.0,0.0,0.0,0.0,0.0,0.0,0.0,0.0,0.0,0.0,0.0,0.0,0.0,0.0,0.0,0.0,0.0,0.0,0.0,0.0,0.0,0.0,0.0,0.0,0.0,0.0,0.0,0.0,0.0,0.0,0.0,0.0,0.0,0.0,0.0,0.0,0.0,0.0,0.0,0.0,0.0,0.0,0.0,0.0,0.0,0.0,0.0,0.0,0.0,0.0,0.0,0.0,0.0,0.0,0.0,0.0,0.0,0.0,0.0,0.0,0.0,0.0,0.0,0.0,0.0,0.0,0.0,0.0,0.0,0.0,0.0,0.0,0.0,0.0,0.0,0.0,0.0,0.0,0.0,0.0,0.0,0.0,0.0,0.0,0.0,0.0,0.0,0.0,0.0,0.0,0.0,0.0,0.0,0.0,0.0,0.0,0.0,0.0,0.0,0.0,0.0,0.0,0.0,0.0,0.0,0.0,0.0,0.0,0.0,0.0,0.0,0.0,0.0,0.0,0.0,0.0,0.0,0.0,0.0,0.0,0.0,0.0,0.0,0.0,0.0,0.0,0.0,0.0,0.0,0.0,0.0,0.0,0.0,0.0,0.0,0.0,0.0,0.0,0.0,0.0,0.0,0.0,0.0,0.0,0.0,0.0,0.0,0.0,0.0,0.0,0.0,0.0
0.02056856585460477,-0.011759014904838468,-0.034730520639863725,-0.04784086111634144,-0.051881588298618685,-0.0484903813922958,-0.0399335209533378,-0.028630423975498028,-0.01677153457592977,-0.006093941107022824,0.002445734978734301,0.00849718818514049,0.012260248573038993,0.014297791964481903,0.015266016507602488,0.015907511940978378,0.016724315770694012,0.017969213913082635,0.019645767056658638,0.021511212921710272,0.023313622947678126,0.02469930922044344,0.02534145919907556,0.024993742148835377,0.023484564712184523,0.02086591816810748,0.017254993632132468,0.012883114941729735,0.00808152965630504,0.00319847766270529,-0.0012673261179797827,-0.004923590747377961,-0.007486025513267237,-0.0088306828362253,-0.00908871463065002,-0.008407250205813963,-0.007127599566422779,-0.005631028069996204,-0.004244825389866268,-0.003277476033153048,-0.002558988796219419,-0.0019216790637936337,-0.001072391797509378,0.00034103205649276203,0.002477379724384957,0.005810476742612529,0.010330123667110815,0.015794198005135266,0.021784217705449548,0.02771204189364428,0.03318573978100922,0.03776852849096751,0.04115710422179949,0.04322740335440633,0.04405469997382091,0.04384000959108431,0.04294123456012307,0.041754342892753704,0.040623303365757514,0.03974914975943891,0.03919653260265758,0.0,0.0,0.0,0.0,0.0,0.0,0.0,0.0,0.0,0.0,0.0,0.0,0.0,0.0,0.0,0.0,0.0,0.0,0.0,0.0,0.0,0.0,0.0,0.0,0.0,0.0,0.0,0.0,0.0,0.0,0.0,0.0,0.0,0.0,0.0,0.0,0.0,0.0,0.0,0.0,0.0,0.0,0.0,0.0,0.0,0.0,0.0,0.0,0.0,0.0,0.0,0.0,0.0,0.0,0.0,0.0,0.0,0.0,0.0,0.0,0.0,0.0,0.0,0.0,0.0,0.0,0.0,0.0,0.0,0.0,0.0,0.0,0.0,0.0,0.0,0.0,0.0,0.0,0.0,0.0,0.0,0.0,0.0,0.0,0.0,0.0,0.0,0.0,0.0,0.0,0.0,0.0,0.0,0.0,0.0,0.0,0.0,0.0,0.0,0.0,0.0,0.0,0.0,0.0,0.0,0.0,0.0,0.0,0.0,0.0,0.0,0.0,0.0,0.0,0.0,0.0,0.0,0.0,0.0,0.0,0.0,0.0,0.0,0.0,0.0,0.0,0.0,0.0,0.0,0.0,0.0,0.0,0.0,0.0,0.0,0.0,0.0,0.0,0.0,0.0,0.0,0.0,0.0,0.0,0.0,0.0,0.0,0.0,0.0,0.0,0.0,0.0,0.0,0.0,0.0,0.0,0.0,0.0,0.0,0.0,0.0,0.0,0.0,0.0,0.0,0.0,0.0,0.0,0.0,0.0,0.0,0.0,0.0,0.0,0.0,0.0,0.0,0.0,0.0,0.0,0.0,0.0,0.0,0.0,0.0,0.0,0.0,0.0,0.0,0.0,0.0,0.0,0.0,0.0,0.0,0.0,0.0,0.0,0.0,0.0,0.0,0.0,0.0,0.0,0.0,0.0,0.0,0.0,0.0,0.0,0.0,0.0,0.0,0.0,0.0,0.0,0.0,0.0,0.0,0.0,0.0,0.0,0.0,0.0,0.0,0.0,0.0,0.0,0.0,0.0,0.0,0.0,0.0,0.0,0.0,0.0,0.0,0.0,0.0
0.2946888726240742,0.31568028707423523,0.32218588128578063,0.31316227208899566,0.2895363906927072,0.25394925075837244,0.21035908057160238,0.16339672548942655,0.11761658331586135,0.07691869028909093,0.04394957306112924,0.019911522980874254,0.0046075696930724715,-0.0033076125909451675,-0.005803076101148209,-0.0051026793216911465,-0.003216464472343168,-0.001631626022949951,-0.0012013550920980144,-0.002054059275637954,-0.003857239676562014,-0.006008219767624395,-0.007870821738972375,-0.00900713607812348,-0.009160891554382204,-0.008389813007178011,-0.006971639201537918,-0.005297076108615788,-0.0038035769184554184,-0.002723506757703772,-0.002194959851495199,-0.002222456970255133,-0.0027233304782592004,-0.0036484289010106203,-0.004836910621540157,-0.006232085597256639,-0.007809378625403344,-0.009541757671694987,-0.011419335277135166,-0.01324182031012091,-0.01480993142369189,-0.015907897183943257,-0.016360184865130772,-0.016141314474373017,-0.015230096496662475,-0.013777308145713228,-0.012014706352105824,-0.010193071256741806,-0.008643428124373922,-0.0072766070129662835,-0.006103940984540703,-0.005059374431454711,-0.004025957648352836,-0.0030781994659967627,-0.0018006811259555049,-0.00021975747299688336,0.0015377208382907157,0.0033114978713004155,0.004663359883649085,0.005916665490475918,0.007215242881027788,0.0,0.0,0.0,0.0,0.0,0.0,0.0,0.0,0.0,0.0,0.0,0.0,0.0,0.0,0.0,0.0,0.0,0.0,0.0,0.0,0.0,0.0,0.0,0.0,0.0,0.0,0.0,0.0,0.0,0.0,0.0,0.0,0.0,0.0,0.0,0.0,0.0,0.0,0.0,0.0,0.0,0.0,0.0,0.0,0.0,0.0,0.0,0.0,0.0,0.0,0.0,0.0,0.0,0.0,0.0,0.0,0.0,0.0,0.0,0.0,0.0,0.0,0.0,0.0,0.0,0.0,0.0,0.0,0.0,0.0,0.0,0.0,0.0,0.0,0.0,0.0,0.0,0.0,0.0,0.0,0.0,0.0,0.0,0.0,0.0,0.0,0.0,0.0,0.0,0.0,0.0,0.0,0.0,0.0,0.0,0.0,0.0,0.0,0.0,0.0,0.0,0.0,0.0,0.0,0.0,0.0,0.0,0.0,0.0,0.0,0.0,0.0,0.0,0.0,0.0,0.0,0.0,0.0,0.0,0.0,0.0,0.0,0.0,0.0,0.0,0.0,0.0,0.0,0.0,0.0,0.0,0.0,0.0,0.0,0.0,0.0,0.0,0.0,0.0,0.0,0.0,0.0,0.0,0.0,0.0,0.0,0.0,0.0,0.0,0.0,0.0,0.0,0.0,0.0,0.0,0.0,0.0,0.0,0.0,0.0,0.0,0.0,0.0,0.0,0.0,0.0,0.0,0.0,0.0,0.0,0.0,0.0,0.0,0.0,0.0,0.0,0.0,0.0,0.0,0.0,0.0,0.0,0.0,0.0,0.0,0.0,0.0,0.0,0.0,0.0,0.0,0.0,0.0,0.0,0.0,0.0,0.0,0.0,0.0,0.0,0.0,0.0,0.0,0.0,0.0,0.0,0.0,0.0,0.0,0.0,0.0,0.0,0.0,0.0,0.0,0.0,0.0,0.0,0.0,0.0,0.0,0.0,0.0,0.0,0.0,0.0,0.0,0.0,0.0,0.0,0.0,0.0,0.0,0.0,0.0,0.0,0.0,0.0,0.0
0.3235845640828204,0.38623398493504674,0.43679336545406566,0.4687513730227356,0.47743681538105065,0.4608248846528783,0.41993194609449236,0.3586894001428004,0.283362470003301,0.20159706002877958,0.12126977250612757,0.049425114863670225,-0.008678723958386193,-0.05008239409380941,-0.07424269532349147,-0.08278429665967935,-0.0788381494428653,-0.06641847636981052,-0.049643442132612944,-0.032110502528976806,-0.01650840601990563,-0.004351670690072365,0.0038437313943904578,0.00837184776547851,0.010021690265537854,0.009728307286309442,0.008417182186920722,0.006725969839074578,0.005007633873422274,0.0033836740545338294,0.0018141927166244055,0.00031783715101797624,-0.0010887916360057506,-0.0023221992552911394,-0.0032543421564701957,-0.0038010433168506105,-0.0038507665564301843,-0.003440443095364638,-0.0027048299010756097,-0.0018384502295023322,-0.0011136129467639783,-0.0005938849711742101,-0.0003278909477475411,-0.0002912899546789094,-0.0004225583025344682,-0.0007792795210175617,-0.001227693621105826,-0.0017516356892131589,-0.0023576918670700684,-0.003051257562460956,-0.00398730095388895,-0.004814401369966838,-0.005438305569196282,-0.005759964624281808,-0.005679956822387444,-0.005361993581562826,-0.0043261563295180884,-0.0026937828566835575,-0.0007011668545627196,0.0013898510227161676,0.0032687479136382803,0.0,0.0,0.0,0.0,0.0,0.0,0.0,0.0,0.0,0.0,0.0,0.0,0.0,0.0,0.0,0.0,0.0,0.0,0.0,0.0,0.0,0.0,0.0,0.0,0.0,0.0,0.0,0.0,0.0,0.0,0.0,0.0,0.0,0.0,0.0,0.0,0.0,0.0,0.0,0.0,0.0,0.0,0.0,0.0,0.0,0.0,0.0,0.0,0.0,0.0,0.0,0.0,0.0,0.0,0.0,0.0,0.0,0.0,0.0,0.0,0.0,0.0,0.0,0.0,0.0,0.0,0.0,0.0,0.0,0.0,0.0,0.0,0.0,0.0,0.0,0.0,0.0,0.0,0.0,0.0,0.0,0.0,0.0,0.0,0.0,0.0,0.0,0.0,0.0,0.0,0.0,0.0,0.0,0.0,0.0,0.0,0.0,0.0,0.0,0.0,0.0,0.0,0.0,0.0,0.0,0.0,0.0,0.0,0.0,0.0,0.0,0.0,0.0,0.0,0.0,0.0,0.0,0.0,0.0,0.0,0.0,0.0,0.0,0.0,0.0,0.0,0.0,0.0,0.0,0.0,0.0,0.0,0.0,0.0,0.0,0.0,0.0,0.0,0.0,0.0,0.0,0.0,0.0,0.0,0.0,0.0,0.0,0.0,0.0,0.0,0.0,0.0,0.0,0.0,0.0,0.0,0.0,0.0,0.0,0.0,0.0,0.0,0.0,0.0,0.0,0.0,0.0,0.0,0.0,0.0,0.0,0.0,0.0,0.0,0.0,0.0,0.0,0.0,0.0,0.0,0.0,0.0,0.0,0.0,0.0,0.0,0.0,0.0,0.0,0.0,0.0,0.0,0.0,0.0,0.0,0.0,0.0,0.0,0.0,0.0,0.0,0.0,0.0,0.0,0.0,0.0,0.0,0.0,0.0,0.0,0.0,0.0,0.0,0.0,0.0,0.0,0.0,0.0,0.0,0.0,0.0,0.0,0.0,0.0,0.0,0.0,0.0,0.0,0.0,0.0,0.0,0.0,0.0,0.0,0.0,0.0,0.0,0.0,0.0
-0.006952227725179411,-0.007009987427371353,-0.006917834359840496,-0.0071664247975373055,-0.007990863911148451,-0.009220969517936252,-0.010469115242609664,-0.011220335162896593,-0.01097290423822789,-0.009423927964787264,-0.0063786600866865386,-0.0019272298961835223,0.003610290631503125,0.009740837942835603,0.01583617558253319,0.021359157983278573,0.02583166289675077,0.028918982946388026,0.03045458012389909,0.03040827001568456,0.02896197809446816,0.026398993974237627,0.023087543853310036,0.01943869706652572,0.015809074877611184,0.012627652670618442,0.010216061581013128,0.008788656699544312,0.008422814009152346,0.008969323339845665,0.01030806695164885,0.01218653504011668,0.014325149515227138,0.016470049924288622,0.01834800016859989,0.019992919698953046,0.021461583742702232,0.02290323173947024,0.024517285839424897,0.02639403583831156,0.028810891633727763,0.03180911836986101,0.03530406704034479,0.0391013603377824,0.04286748369518613,0.04640221147597855,0.04946917965585916,0.05191223509365812,0.0536854348361399,0.05482725204006196,0.055530032858817704,0.056029970725717713,0.05655976003444452,0.057283016102305045,0.0582192898217138,0.059290578893611806,0.06028844706949768,0.06092269526901005,0.06088059736847019,0.059877089350424746,0.05776401058252409,0.0,0.0,0.0,0.0,0.0,0.0,0.0,0.0,0.0,0.0,0.0,0.0,0.0,0.0,0.0,0.0,0.0,0.0,0.0,0.0,0.0,0.0,0.0,0.0,0.0,0.0,0.0,0.0,0.0,0.0,0.0,0.0,0.0,0.0,0.0,0.0,0.0,0.0,0.0,0.0,0.0,0.0,0.0,0.0,0.0,0.0,0.0,0.0,0.0,0.0,0.0,0.0,0.0,0.0,0.0,0.0,0.0,0.0,0.0,0.0,0.0,0.0,0.0,0.0,0.0,0.0,0.0,0.0,0.0,0.0,0.0,0.0,0.0,0.0,0.0,0.0,0.0,0.0,0.0,0.0,0.0,0.0,0.0,0.0,0.0,0.0,0.0,0.0,0.0,0.0,0.0,0.0,0.0,0.0,0.0,0.0,0.0,0.0,0.0,0.0,0.0,0.0,0.0,0.0,0.0,0.0,0.0,0.0,0.0,0.0,0.0,0.0,0.0,0.0,0.0,0.0,0.0,0.0,0.0,0.0,0.0,0.0,0.0,0.0,0.0,0.0,0.0,0.0,0.0,0.0,0.0,0.0,0.0,0.0,0.0,0.0,0.0,0.0,0.0,0.0,0.0,0.0,0.0,0.0,0.0,0.0,0.0,0.0,0.0,0.0,0.0,0.0,0.0,0.0,0.0,0.0,0.0,0.0,0.0,0.0,0.0,0.0,0.0,0.0,0.0,0.0,0.0,0.0,0.0,0.0,0.0,0.0,0.0,0.0,0.0,0.0,0.0,0.0,0.0,0.0,0.0,0.0,0.0,0.0,0.0,0.0,0.0,0.0,0.0,0.0,0.0,0.0,0.0,0.0,0.0,0.0,0.0,0.0,0.0,0.0,0.0,0.0,0.0,0.0,0.0,0.0,0.0,0.0,0.0,0.0,0.0,0.0,0.0,0.0,0.0,0.0,0.0,0.0,0.0,0.0,0.0,0.0,0.0,0.0,0.0,0.0,0.0,0.0,0.0,0.0,0.0,0.0,0.0,0.0,0.0,0.0,0.0,0.0,0.0
0.07086641901351402,0.06724608897873953,0.06384672602144209,0.060957663733918296,0.05865611939692732,0.05686173432109161,0.05538327639011793,0.05393730717427585,0.052362251801366534,0.050533431061666766,0.04843153292733256,0.046138884085496955,0.043756020151712635,0.0415242347698744,0.03959930939996762,0.03806187592848003,0.03689449178087598,0.03592647757672818,0.03505895299519325,0.034106142972795205,0.032920689849146874,0.03144750915173359,0.029694299859350737,0.02794679720105824,0.026516720732938277,0.025758715829649014,0.026000526522591196,0.027403325842192676,0.030130813362738457,0.03407923890460106,0.03895969317759414,0.0443399492965531,0.049440987513748196,0.05404288448818765,0.05786699956514881,0.06076461963611051,0.06267937207051501,0.06312255832599727,0.06256986747616754,0.0613269351805793,0.05976308941229013,0.05822708384432106,0.056719870539042566,0.055571064308269594,0.05479513922156398,0.054269558623416245,0.05377479561812712,0.05305441014804158,0.05194011144761864,0.05029626546793067,0.04812620827745723,0.045591557966504256,0.04296056630854699,0.04062687645321983,0.0388670989377075,0.03781251099387024,0.03740832031488138,0.037389447408856656,0.037486377403697306,0.037365849674043515,0.036803671349775136,0.0,0.0,0.0,0.0,0.0,0.0,0.0,0.0,0.0,0.0,0.0,0.0,0.0,0.0,0.0,0.0,0.0,0.0,0.0,0.0,0.0,0.0,0.0,0.0,0.0,0.0,0.0,0.0,0.0,0.0,0.0,0.0,0.0,0.0,0.0,0.0,0.0,0.0,0.0,0.0,0.0,0.0,0.0,0.0,0.0,0.0,0.0,0.0,0.0,0.0,0.0,0.0,0.0,0.0,0.0,0.0,0.0,0.0,0.0,0.0,0.0,0.0,0.0,0.0,0.0,0.0,0.0,0.0,0.0,0.0,0.0,0.0,0.0,0.0,0.0,0.0,0.0,0.0,0.0,0.0,0.0,0.0,0.0,0.0,0.0,0.0,0.0,0.0,0.0,0.0,0.0,0.0,0.0,0.0,0.0,0.0,0.0,0.0,0.0,0.0,0.0,0.0,0.0,0.0,0.0,0.0,0.0,0.0,0.0,0.0,0.0,0.0,0.0,0.0,0.0,0.0,0.0,0.0,0.0,0.0,0.0,0.0,0.0,0.0,0.0,0.0,0.0,0.0,0.0,0.0,0.0,0.0,0.0,0.0,0.0,0.0,0.0,0.0,0.0,0.0,0.0,0.0,0.0,0.0,0.0,0.0,0.0,0.0,0.0,0.0,0.0,0.0,0.0,0.0,0.0,0.0,0.0,0.0,0.0,0.0,0.0,0.0,0.0,0.0,0.0,0.0,0.0,0.0,0.0,0.0,0.0,0.0,0.0,0.0,0.0,0.0,0.0,0.0,0.0,0.0,0.0,0.0,0.0,0.0,0.0,0.0,0.0,0.0,0.0,0.0,0.0,0.0,0.0,0.0,0.0,0.0,0.0,0.0,0.0,0.0,0.0,0.0,0.0,0.0,0.0,0.0,0.0,0.0,0.0,0.0,0.0,0.0,0.0,0.0,0.0,0.0,0.0,0.0,0.0,0.0,0.0,0.0,0.0,0.0,0.0,0.0,0.0,0.0,0.0,0.0,0.0,0.0,0.0,0.0,0.0,0.0,0.0,0.0,0.0
0.09812536019154017,0.14762180700303196,0.20942202753178052,0.2795175588134767,0.35181400967509546,0.41898717683030745,0.473351648114415,0.508099597471631,0.5184181856314884,0.5022647956185172,0.4609248643981833,0.3986425271902017,0.32203099258993845,0.23904281389496362,0.1577113797899318,0.08518142357836092,0.026602429008766252,-0.015310264484598173,-0.040332557841561104,-0.05043412862323641,-0.04894260846493332,-0.03994913554253003,-0.02746581654183847,-0.01480208668518805,-0.004260724870140938,0.0032081180009054756,0.007632245292106993,0.00977223833755531,0.010728384471185,0.011473520962325736,0.01287596707764936,0.015297413521040571,0.018670715835664892,0.022607595933959907,0.02649179400292173,0.029878271901361504,0.03240760239077909,0.03392840260703597,0.03448680739673481,0.03421550587924987,0.03341493242831011,0.032320809072570754,0.03111086805633591,0.02989602059443695,0.028692729398829133,0.027594858553798878,0.02664129552634145,0.025869305986337462,0.025305233792139087,0.024909959911866376,0.024696811799752257,0.02459105571657602,0.02449862434412473,0.02434039297491996,0.023918823659103774,0.02355234247059061,0.02329859574143182,0.02322008632734333,0.02337555215770083,0.023502785974588672,0.024096641595508273,0.0,0.0,0.0,0.0,0.0,0.0,0.0,0.0,0.0,0.0,0.0,0.0,0.0,0.0,0.0,0.0,0.0,0.0,0.0,0.0,0.0,0.0,0.0,0.0,0.0,0.0,0.0,0.0,0.0,0.0,0.0,0.0,0.0,0.0,0.0,0.0,0.0,0.0,0.0,0.0,0.0,0.0,0.0,0.0,0.0,0.0,0.0,0.0,0.0,0.0,0.0,0.0,0.0,0.0,0.0,0.0,0.0,0.0,0.0,0.0,0.0,0.0,0.0,0.0,0.0,0.0,0.0,0.0,0.0,0.0,0.0,0.0,0.0,0.0,0.0,0.0,0.0,0.0,0.0,0.0,0.0,0.0,0.0,0.0,0.0,0.0,0.0,0.0,0.0,0.0,0.0,0.0,0.0,0.0,0.0,0.0,0.0,0.0,0.0,0.0,0.0,0.0,0.0,0.0,0.0,0.0,0.0,0.0,0.0,0.0,0.0,0.0,0.0,0.0,0.0,0.0,0.0,0.0,0.0,0.0,0.0,0.0,0.0,0.0,0.0,0.0,0.0,0.0,0.0,0.0,0.0,0.0,0.0,0.0,0.0,0.0,0.0,0.0,0.0,0.0,0.0,0.0,0.0,0.0,0.0,0.0,0.0,0.0,0.0,0.0,0.0,0.0,0.0,0.0,0.0,0.0,0.0,0.0,0.0,0.0,0.0,0.0,0.0,0.0,0.0,0.0,0.0,0.0,0.0,0.0,0.0,0.0,0.0,0.0,0.0,0.0,0.0,0.0,0.0,0.0,0.0,0.0,0.0,0.0,0.0,0.0,0.0,0.0,0.0,0.0,0.0,0.0,0.0,0.0,0.0,0.0,0.0,0.0,0.0,0.0,0.0,0.0,0.0,0.0,0.0,0.0,0.0,0.0,0.0,0.0,0.0,0.0,0.0,0.0,0.0,0.0,0.0,0.0,0.0,0.0,0.0,0.0,0.0,0.0,0.0,0.0,0.0,0.0,0.0,0.0,0.0,0.0,0.0,0.0,0.0,0.0,0.0,0.0,0.0
0.03145588316117286,0.03223563155341936,0.0331441648318671,0.034144126639362095,0.03511432071485312,0.036032844929060476,0.03684733287105706,0.03753428433378019,0.03810243278773166,0.03853862071077495,0.03894634576829683,0.03938032916619249,0.039876846030786076,0.04044372555993192,0.04099052032668569,0.04155561093993125,0.04208355831197494,0.04251200424967324,0.04278501833213218,0.04277626665695606,0.04258759128018723,0.042234928293906494,0.041751680628027414,0.04118945513694468,0.040543710535119855,0.03998294786027779,0.03959315812021497,0.03944651074216297,0.039593891941757185,0.0400028384385439,0.04073198421467052,0.04175195692565681,0.04299866324709346,0.04437676970466939,0.045725346582901054,0.04696928397442632,0.04800191989121905,0.04874429524940526,0.04915964746758159,0.04923012319913682,0.04904891309631637,0.048711864551199704,0.04832341335651229,0.04797124459725972,0.047658820862315376,0.047438961802420396,0.047274693729915045,0.04708923926897946,0.04678284172693784,0.0461926672106901,0.045311754760412964,0.044125531259448,0.04267428579177772,0.04105072938571781,0.039313778498338725,0.03770360968596313,0.03640265837693945,0.03557087051487994,0.03531861704449779,0.0355999792446828,0.03647547580333765,0.0,0.0,0.0,0.0,0.0,0.0,0.0,0.0,0.0,0.0,0.0,0.0,0.0,0.0,0.0,0.0,0.0,0.0,0.0,0.0,0.0,0.0,0.0,0.0,0.0,0.0,0.0,0.0,0.0,0.0,0.0,0.0,0.0,0.0,0.0,0.0,0.0,0.0,0.0,0.0,0.0,0.0,0.0,0.0,0.0,0.0,0.0,0.0,0.0,0.0,0.0,0.0,0.0,0.0,0.0,0.0,0.0,0.0,0.0,0.0,0.0,0.0,0.0,0.0,0.0,0.0,0.0,0.0,0.0,0.0,0.0,0.0,0.0,0.0,0.0,0.0,0.0,0.0,0.0,0.0,0.0,0.0,0.0,0.0,0.0,0.0,0.0,0.0,0.0,0.0,0.0,0.0,0.0,0.0,0.0,0.0,0.0,0.0,0.0,0.0,0.0,0.0,0.0,0.0,0.0,0.0,0.0,0.0,0.0,0.0,0.0,0.0,0.0,0.0,0.0,0.0,0.0,0.0,0.0,0.0,0.0,0.0,0.0,0.0,0.0,0.0,0.0,0.0,0.0,0.0,0.0,0.0,0.0,0.0,0.0,0.0,0.0,0.0,0.0,0.0,0.0,0.0,0.0,0.0,0.0,0.0,0.0,0.0,0.0,0.0,0.0,0.0,0.0,0.0,0.0,0.0,0.0,0.0,0.0,0.0,0.0,0.0,0.0,0.0,0.0,0.0,0.0,0.0,0.0,0.0,0.0,0.0,0.0,0.0,0.0,0.0,0.0,0.0,0.0,0.0,0.0,0.0,0.0,0.0,0.0,0.0,0.0,0.0,0.0,0.0,0.0,0.0,0.0,0.0,0.0,0.0,0.0,0.0,0.0,0.0,0.0,0.0,0.0,0.0,0.0,0.0,0.0,0.0,0.0,0.0,0.0,0.0,0.0,0.0,0.0,0.0,0.0,0.0,0.0,0.0,0.0,0.0,0.0,0.0,0.0,0.0,0.0,0.0,0.0,0.0,0.0,0.0,0.0,0.0,0.0,0.0,0.0,0.0,0.0
0.044125531259448,0.04267428579177772,0.04105072938571781,0.039313778498338725,0.03770360968596313,0.03640265837693945,0.03557087051487994,0.03531861704449779,0.0355999792446828,0.03647547580333765,0.037866089063466585,0.03963524976636286,0.04160399098336212,0.04349681073359137,0.04520006620555921,0.046561230259280204,0.047473931890779704,0.04788936492222645,0.047758162726884414,0.0472243479355742,0.04641254371289227,0.04546735568426514,0.04452635807776637,0.043554141047364145,0.04274280017379025,0.04212206808017366,0.041642046013349546,0.041163351233306306,0.0402571647748955,0.038900488187834474,0.03699721002580918,0.03456650435927655,0.031756469777442516,0.028686581315671277,0.025839160202231655,0.0236174120988114,0.022376042708780443,0.022349588321578722,0.023537061346604996,0.02590659834765997,0.02920030357010791,0.03305873276375483,0.037094361582934825,0.04091375083252905,0.04434263040439966,0.04727444070742811,0.04973087625394976,0.051839134844290924,0.05375604087755127,0.05573679303270288,0.05794273915927383,0.06045399277947225,0.06325149302749866,0.06618337376335402,0.06908772025990138,0.07168474292330354,0.0736521683052291,0.07466385121070639,0.07440210399721038,0.07270482847136196,0.06949671804347007,0.0,0.0,0.0,0.0,0.0,0.0,0.0,0.0,0.0,0.0,0.0,0.0,0.0,0.0,0.0,0.0,0.0,0.0,0.0,0.0,0.0,0.0,0.0,0.0,0.0,0.0,0.0,0.0,0.0,0.0,0.0,0.0,0.0,0.0,0.0,0.0,0.0,0.0,0.0,0.0,0.0,0.0,0.0,0.0,0.0,0.0,0.0,0.0,0.0,0.0,0.0,0.0,0.0,0.0,0.0,0.0,0.0,0.0,0.0,0.0,0.0,0.0,0.0,0.0,0.0,0.0,0.0,0.0,0.0,0.0,0.0,0.0,0.0,0.0,0.0,0.0,0.0,0.0,0.0,0.0,0.0,0.0,0.0,0.0,0.0,0.0,0.0,0.0,0.0,0.0,0.0,0.0,0.0,0.0,0.0,0.0,0.0,0.0,0.0,0.0,0.0,0.0,0.0,0.0,0.0,0.0,0.0,0.0,0.0,0.0,0.0,0.0,0.0,0.0,0.0,0.0,0.0,0.0,0.0,0.0,0.0,0.0,0.0,0.0,0.0,0.0,0.0,0.0,0.0,0.0,0.0,0.0,0.0,0.0,0.0,0.0,0.0,0.0,0.0,0.0,0.0,0.0,0.0,0.0,0.0,0.0,0.0,0.0,0.0,0.0,0.0,0.0,0.0,0.0,0.0,0.0,0.0,0.0,0.0,0.0,0.0,0.0,0.0,0.0,0.0,0.0,0.0,0.0,0.0,0.0,0.0,0.0,0.0,0.0,0.0,0.0,0.0,0.0,0.0,0.0,0.0,0.0,0.0,0.0,0.0,0.0,0.0,0.0,0.0,0.0,0.0,0.0,0.0,0.0,0.0,0.0,0.0,0.0,0.0,0.0,0.0,0.0,0.0,0.0,0.0,0.0,0.0,0.0,0.0,0.0,0.0,0.0,0.0,0.0,0.0,0.0,0.0,0.0,0.0,0.0,0.0,0.0,0.0,0.0,0.0,0.0,0.0,0.0,0.0,0.0,0.0,0.0,0.0,0.0,0.0,0.0,0.0,0.0,0.0
0.06045399277947225,0.06325149302749866,0.06618337376335402,0.06908772025990138,0.07168474292330354,0.0736521683052291,0.07466385121070639,0.07440210399721038,0.07270482847136196,0.06949671804347007,0.06488014980953122,0.05918580145571722,0.052982317844807225,0.047182072492373016,0.04288336990418131,0.041319575404223284,0.04370775170072807,0.05102208842316543,0.06386367595658615,0.08213531719576711,0.10496209620587699,0.13068901255930873,0.1570036817249164,0.18128075624092302,0.2008554553003325,0.21347497055133294,0.21767027341788941,0.2129961355918509,0.2001459877677182,0.18074976277793275,0.15711739820583095,0.13184702454149172,0.10740123665334281,0.08577286448800381,0.0681876957222379,0.05504964983547975,0.04602377566509399,0.04024076130840915,0.03658174006729718,0.03391667105104983,0.03134273179861038,0.028320733274353437,0.024681842986302088,0.020666200050313027,0.016683982509796025,0.013204423046127818,0.010617690883612882,0.009083318838186529,0.008670297595398302,0.009179911829656686,0.010273593651324957,0.01156294383581503,0.012643667194203286,0.013344799419435008,0.013545669978337359,0.013240490818058427,0.012508196788017178,0.011415518054660102,0.010166089756277964,0.008846846406208303,0.007502455002087629,0.0,0.0,0.0,0.0,0.0,0.0,0.0,0.0,0.0,0.0,0.0,0.0,0.0,0.0,0.0,0.0,0.0,0.0,0.0,0.0,0.0,0.0,0.0,0.0,0.0,0.0,0.0,0.0,0.0,0.0,0.0,0.0,0.0,0.0,0.0,0.0,0.0,0.0,0.0,0.0,0.0,0.0,0.0,0.0,0.0,0.0,0.0,0.0,0.0,0.0,0.0,0.0,0.0,0.0,0.0,0.0,0.0,0.0,0.0,0.0,0.0,0.0,0.0,0.0,0.0,0.0,0.0,0.0,0.0,0.0,0.0,0.0,0.0,0.0,0.0,0.0,0.0,0.0,0.0,0.0,0.0,0.0,0.0,0.0,0.0,0.0,0.0,0.0,0.0,0.0,0.0,0.0,0.0,0.0,0.0,0.0,0.0,0.0,0.0,0.0,0.0,0.0,0.0,0.0,0.0,0.0,0.0,0.0,0.0,0.0,0.0,0.0,0.0,0.0,0.0,0.0,0.0,0.0,0.0,0.0,0.0,0.0,0.0,0.0,0.0,0.0,0.0,0.0,0.0,0.0,0.0,0.0,0.0,0.0,0.0,0.0,0.0,0.0,0.0,0.0,0.0,0.0,0.0,0.0,0.0,0.0,0.0,0.0,0.0,0.0,0.0,0.0,0.0,0.0,0.0,0.0,0.0,0.0,0.0,0.0,0.0,0.0,0.0,0.0,0.0,0.0,0.0,0.0,0.0,0.0,0.0,0.0,0.0,0.0,0.0,0.0,0.0,0.0,0.0,0.0,0.0,0.0,0.0,0.0,0.0,0.0,0.0,0.0,0.0,0.0,0.0,0.0,0.0,0.0,0.0,0.0,0.0,0.0,0.0,0.0,0.0,0.0,0.0,0.0,0.0,0.0,0.0,0.0,0.0,0.0,0.0,0.0,0.0,0.0,0.0,0.0,0.0,0.0,0.0,0.0,0.0,0.0,0.0,0.0,0.0,0.0,0.0,0.0,0.0,0.0,0.0,0.0,0.0,0.0,0.0,0.0,0.0,0.0,0.0
0.01156294383581503,0.012643667194203286,0.013344799419435008,0.013545669978337359,0.013240490818058427,0.012508196788017178,0.011415518054660102,0.010166089756277964,0.008846846406208303,0.007502455002087629,0.006151353808350048,0.0047523555044717255,0.003400365714231584,0.0021203626297474076,0.00092364558317324,-0.00020548917131708055,-0.0013709643068258728,-0.002582885485960146,-0.003918351302518812,-0.005431346128687546,-0.007120258043211644,-0.008999853214011975,-0.01078365473053639,-0.012303427633150366,-0.013414998843307876,-0.01403502691510621,-0.01429537771842453,-0.014079080782191819,-0.013592226631600781,-0.013086283892373473,-0.01276474582572868,-0.012791138374876275,-0.012938152838538526,-0.01298039205918144,-0.012608118009297916,-0.011494464736351153,-0.009418783421081853,-0.006181746402071265,-0.0018183391620636815,0.003448656077734845,0.00923869668471828,0.015044948506073,0.02040408086765939,0.02487059418578642,0.02811594523217567,0.029971858105787706,0.030434106093075775,0.02968055740309402,0.027994446244701408,0.025724481709183514,0.023231341165961976,0.02082363839563171,0.018789006740423407,0.017321301631237216,0.01653848732849984,0.016490824226136246,0.01714328813145712,0.01847219189068441,0.020387484547205983,0.022754739416014254,0.025392896058302056,0.0,0.0,0.0,0.0,0.0,0.0,0.0,0.0,0.0,0.0,0.0,0.0,0.0,0.0,0.0,0.0,0.0,0.0,0.0,0.0,0.0,0.0,0.0,0.0,0.0,0.0,0.0,0.0,0.0,0.0,0.0,0.0,0.0,0.0,0.0,0.0,0.0,0.0,0.0,0.0,0.0,0.0,0.0,0.0,0.0,0.0,0.0,0.0,0.0,0.0,0.0,0.0,0.0,0.0,0.0,0.0,0.0,0.0,0.0,0.0,0.0,0.0,0.0,0.0,0.0,0.0,0.0,0.0,0.0,0.0,0.0,0.0,0.0,0.0,0.0,0.0,0.0,0.0,0.0,0.0,0.0,0.0,0.0,0.0,0.0,0.0,0.0,0.0,0.0,0.0,0.0,0.0,0.0,0.0,0.0,0.0,0.0,0.0,0.0,0.0,0.0,0.0,0.0,0.0,0.0,0.0,0.0,0.0,0.0,0.0,0.0,0.0,0.0,0.0,0.0,0.0,0.0,0.0,0.0,0.0,0.0,0.0,0.0,0.0,0.0,0.0,0.0,0.0,0.0,0.0,0.0,0.0,0.0,0.0,0.0,0.0,0.0,0.0,0.0,0.0,0.0,0.0,0.0,0.0,0.0,0.0,0.0,0.0,0.0,0.0,0.0,0.0,0.0,0.0,0.0,0.0,0.0,0.0,0.0,0.0,0.0,0.0,0.0,0.0,0.0,0.0,0.0,0.0,0.0,0.0,0.0,0.0,0.0,0.0,0.0,0.0,0.0,0.0,0.0,0.0,0.0,0.0,0.0,0.0,0.0,0.0,0.0,0.0,0.0,0.0,0.0,0.0,0.0,0.0,0.0,0.0,0.0,0.0,0.0,0.0,0.0,0.0,0.0,0.0,0.0,0.0,0.0,0.0,0.0,0.0,0.0,0.0,0.0,0.0,0.0,0.0,0.0,0.0,0.0,0.0,0.0,0.0,0.0,0.0,0.0,0.0,0.0,0.0,0.0,0.0,0.0,0.0,0.0,0.0,0.0,0.0,0.0,0.0,0.0
0.02082363839563171,0.018789006740423407,0.017321301631237216,0.01653848732849984,0.016490824226136246,0.01714328813145712,0.01847219189068441,0.020387484547205983,0.022754739416014254,0.025392896058302056,0.027948055196504472,0.03029228529245321,0.03223847760709007,0.03362131334011661,0.03429496789046787,0.03390636387726956,0.03259736636922322,0.030503098846223892,0.027868339615195064,0.02500220635138516,0.022095902362376185,0.01952108018391515,0.017521146275397026,0.016240587702349776,0.015709444812302447,0.01584095448592495,0.01649182805704143,0.017497069010297503,0.018703325367347014,0.019987683911111366,0.02126478456636609,0.02243911188940705,0.023417536414504,0.024077659245912885,0.024265923009920275,0.02384757225269984,0.022659808793154258,0.020645661693518426,0.017879851802621877,0.014595238831963672,0.011185367454286896,0.00811479281638471,0.005846041930487987,0.004732677790835164,0.0049245546540070675,0.006308837354572459,0.008531294319578955,0.011026901898818633,0.013189659163071589,0.014569778310039205,0.015076510846765272,0.015127478163413274,0.015675104436006726,0.018143352895271154,0.024215001966071337,0.035511912335881954,0.05318815719282781,0.0775581636329243,0.10784702987771425,0.1421216994524219,0.1774510815252523,0.0,0.0,0.0,0.0,0.0,0.0,0.0,0.0,0.0,0.0,0.0,0.0,0.0,0.0,0.0,0.0,0.0,0.0,0.0,0.0,0.0,0.0,0.0,0.0,0.0,0.0,0.0,0.0,0.0,0.0,0.0,0.0,0.0,0.0,0.0,0.0,0.0,0.0,0.0,0.0,0.0,0.0,0.0,0.0,0.0,0.0,0.0,0.0,0.0,0.0,0.0,0.0,0.0,0.0,0.0,0.0,0.0,0.0,0.0,0.0,0.0,0.0,0.0,0.0,0.0,0.0,0.0,0.0,0.0,0.0,0.0,0.0,0.0,0.0,0.0,0.0,0.0,0.0,0.0,0.0,0.0,0.0,0.0,0.0,0.0,0.0,0.0,0.0,0.0,0.0,0.0,0.0,0.0,0.0,0.0,0.0,0.0,0.0,0.0,0.0,0.0,0.0,0.0,0.0,0.0,0.0,0.0,0.0,0.0,0.0,0.0,0.0,0.0,0.0,0.0,0.0,0.0,0.0,0.0,0.0,0.0,0.0,0.0,0.0,0.0,0.0,0.0,0.0,0.0,0.0,0.0,0.0,0.0,0.0,0.0,0.0,0.0,0.0,0.0,0.0,0.0,0.0,0.0,0.0,0.0,0.0,0.0,0.0,0.0,0.0,0.0,0.0,0.0,0.0,0.0,0.0,0.0,0.0,0.0,0.0,0.0,0.0,0.0,0.0,0.0,0.0,0.0,0.0,0.0,0.0,0.0,0.0,0.0,0.0,0.0,0.0,0.0,0.0,0.0,0.0,0.0,0.0,0.0,0.0,0.0,0.0,0.0,0.0,0.0,0.0,0.0,0.0,0.0,0.0,0.0,0.0,0.0,0.0,0.0,0.0,0.0,0.0,0.0,0.0,0.0,0.0,0.0,0.0,0.0,0.0,0.0,0.0,0.0,0.0,0.0,0.0,0.0,0.0,0.0,0.0,0.0,0.0,0.0,0.0,0.0,0.0,0.0,0.0,0.0,0.0,0.0,0.0,0.0,0.0,0.0,0.0,0.0,0.0,0.0
0.015127478163413274,0.015675104436006726,0.018143352895271154,0.024215001966071337,0.035511912335881954,0.05318815719282781,0.0775581636329243,0.10784702987771425,0.1421216994524219,0.1774510815252523,0.21027858560699392,0.2369292550436079,0.2542243724975487,0.26002839693877244,0.25362494358614457,0.2358583488033769,0.2089311117597333,0.17603383802740902,0.14079655279146575,0.10669271772750039,0.07653300689949293,0.052073230417976665,0.033905922431819724,0.021564708644159086,0.01380729438851312,0.009018124886424403,0.005577367315245366,0.002199889046822989,-0.0018649321088843038,-0.006795120363018231,-0.0122467262679272,-0.017593143469028974,-0.02213252427095821,-0.025294572861927694,-0.02680164122401994,-0.026659481814556015,-0.025197380466308678,-0.022937384154103325,-0.02045438548249851,-0.01826643346178446,-0.016665614460486585,-0.01575852460407576,-0.015470325429518263,-0.015614198103069325,-0.016005600460193812,-0.0164459459211354,-0.01683531428557448,-0.017156389723399945,-0.017447842135817706,-0.01779711557693089,-0.018195406747529744,-0.01861755687664457,-0.019002324879929137,-0.01928148616856609,-0.01945377574775222,-0.01948193541308921,-0.019417283229426527,-0.01934125257126148,-0.01932945089963808,-0.01950681963613584,-0.019691417637649138,0.0,0.0,0.0,0.0,0.0,0.0,0.0,0.0,0.0,0.0,0.0,0.0,0.0,0.0,0.0,0.0,0.0,0.0,0.0,0.0,0.0,0.0,0.0,0.0,0.0,0.0,0.0,0.0,0.0,0.0,0.0,0.0,0.0,0.0,0.0,0.0,0.0,0.0,0.0,0.0,0.0,0.0,0.0,0.0,0.0,0.0,0.0,0.0,0.0,0.0,0.0,0.0,0.0,0.0,0.0,0.0,0.0,0.0,0.0,0.0,0.0,0.0,0.0,0.0,0.0,0.0,0.0,0.0,0.0,0.0,0.0,0.0,0.0,0.0,0.0,0.0,0.0,0.0,0.0,0.0,0.0,0.0,0.0,0.0,0.0,0.0,0.0,0.0,0.0,0.0,0.0,0.0,0.0,0.0,0.0,0.0,0.0,0.0,0.0,0.0,0.0,0.0,0.0,0.0,0.0,0.0,0.0,0.0,0.0,0.0,0.0,0.0,0.0,0.0,0.0,0.0,0.0,0.0,0.0,0.0,0.0,0.0,0.0,0.0,0.0,0.0,0.0,0.0,0.0,0.0,0.0,0.0,0.0,0.0,0.0,0.0,0.0,0.0,0.0,0.0,0.0,0.0,0.0,0.0,0.0,0.0,0.0,0.0,0.0,0.0,0.0,0.0,0.0,0.0,0.0,0.0,0.0,0.0,0.0,0.0,0.0,0.0,0.0,0.0,0.0,0.0,0.0,0.0,0.0,0.0,0.0,0.0,0.0,0.0,0.0,0.0,0.0,0.0,0.0,0.0,0.0,0.0,0.0,0.0,0.0,0.0,0.0,0.0,0.0,0.0,0.0,0.0,0.0,0.0,0.0,0.0,0.0,0.0,0.0,0.0,0.0,0.0,0.0,0.0,0.0,0.0,0.0,0.0,0.0,0.0,0.0,0.0,0.0,0.0,0.0,0.0,0.0,0.0,0.0,0.0,0.0,0.0,0.0,0.0,0.0,0.0,0.0,0.0,0.0,0.0,0.0,0.0,0.0,0.0,0.0,0.0,0.0,0.0,0.0
-0.01861755687664457,-0.019002324879929137,-0.01928148616856609,-0.01945377574775222,-0.01948193541308921,-0.019417283229426527,-0.01934125257126148,-0.01932945089963808,-0.01950681963613584,-0.019691417637649138,-0.019803095435701686,-0.019735095691917476,-0.019377415630710073,-0.0187928302853965,-0.01770470671760404,-0.016202422623336026,-0.014461416705992668,-0.012677167568742558,-0.01127697266506439,-0.010012289477859789,-0.008786257295705039,-0.007468877147052399,-0.00597691950677504,-0.004741989905529189,-0.0035235090596879176,-0.0023249098163321,-0.0011388775300736152,4.9598294106184056e-05,0.0010695583014476656,0.0020904641923505034,0.00320490257415812,0.004508471890609999,0.00607611609498741,0.007986310170058634,0.010189072348531255,0.012638501152716768,0.015267444457098553,0.017998816856918873,0.020764394617065883,0.023451730115047982,0.025957133669072405,0.028158916048088373,0.02992151761885034,0.031104541049616408,0.03162670576303332,0.03150108827735971,0.030856379409661707,0.02993212608174506,0.029038036797996273,0.02847339947560782,0.028456784871507393,0.029020169798312918,0.02994273454463978,0.03075469459914926,0.030767516561187033,0.029282931987235455,0.025797618319130806,0.020256553963764364,0.013268424865759913,0.006278738911113525,0.001553096418916976,0.0,0.0,0.0,0.0,0.0,0.0,0.0,0.0,0.0,0.0,0.0,0.0,0.0,0.0,0.0,0.0,0.0,0.0,0.0,0.0,0.0,0.0,0.0,0.0,0.0,0.0,0.0,0.0,0.0,0.0,0.0,0.0,0.0,0.0,0.0,0.0,0.0,0.0,0.0,0.0,0.0,0.0,0.0,0.0,0.0,0.0,0.0,0.0,0.0,0.0,0.0,0.0,0.0,0.0,0.0,0.0,0.0,0.0,0.0,0.0,0.0,0.0,0.0,0.0,0.0,0.0,0.0,0.0,0.0,0.0,0.0,0.0,0.0,0.0,0.0,0.0,0.0,0.0,0.0,0.0,0.0,0.0,0.0,0.0,0.0,0.0,0.0,0.0,0.0,0.0,0.0,0.0,0.0,0.0,0.0,0.0,0.0,0.0,0.0,0.0,0.0,0.0,0.0,0.0,0.0,0.0,0.0,0.0,0.0,0.0,0.0,0.0,0.0,0.0,0.0,0.0,0.0,0.0,0.0,0.0,0.0,0.0,0.0,0.0,0.0,0.0,0.0,0.0,0.0,0.0,0.0,0.0,0.0,0.0,0.0,0.0,0.0,0.0,0.0,0.0,0.0,0.0,0.0,0.0,0.0,0.0,0.0,0.0,0.0,0.0,0.0,0.0,0.0,0.0,0.0,0.0,0.0,0.0,0.0,0.0,0.0,0.0,0.0,0.0,0.0,0.0,0.0,0.0,0.0,0.0,0.0,0.0,0.0,0.0,0.0,0.0,0.0,0.0,0.0,0.0,0.0,0.0,0.0,0.0,0.0,0.0,0.0,0.0,0.0,0.0,0.0,0.0,0.0,0.0,0.0,0.0,0.0,0.0,0.0,0.0,0.0,0.0,0.0,0.0,0.0,0.0,0.0,0.0,0.0,0.0,0.0,0.0,0.0,0.0,0.0,0.0,0.0,0.0,0.0,0.0,0.0,0.0,0.0,0.0,0.0,0.0,0.0,0.0,0.0,0.0,0.0,0.0,0.0,0.0,0.0,0.0,0.0,0.0,0.0
0.029020169798312918,0.02994273454463978,0.03075469459914926,0.030767516561187033,0.029282931987235455,0.025797618319130806,0.020256553963764364,0.013268424865759913,0.006278738911113525,0.001553096418916976,0.0019620893007200957,0.010570373382888945,0.030033994175598863,0.06208400563428875,0.10690096406030136,0.16274438068232056,0.22586975170383042,0.2907688811881124,0.35092429366613087,0.39964089774140754,0.4310750070291043,0.4411691300247718,0.428286319564452,0.3936194665018978,0.3409358641944035,0.2760031507329518,0.20568478652399116,0.13684628046663752,0.07554406683858739,0.026150129405367137,-0.009030624216162571,-0.029799556976789505,-0.03783038399684248,-0.035911039562892766,-0.0274455563730394,-0.015779485478928608,-0.0037098397687567513,0.006730127764326039,0.014553445230339768,0.019518026292373085,0.02193437752544548,0.022379877439276004,0.021377890866596753,0.019459555490144973,0.016912322854316406,0.013882627902308877,0.010476658634583318,0.006795861264680698,0.003239763784192308,0.0003033166821533204,-0.0014328331741185522,-0.0014265601701093599,0.0006102037053262906,0.004840452246402846,0.01103915649094564,0.018679703326699586,0.027025457547066634,0.03519354001148082,0.04251730442796982,0.048474144287362055,0.05279815427495521,0.0,0.0,0.0,0.0,0.0,0.0,0.0,0.0,0.0,0.0,0.0,0.0,0.0,0.0,0.0,0.0,0.0,0.0,0.0,0.0,0.0,0.0,0.0,0.0,0.0,0.0,0.0,0.0,0.0,0.0,0.0,0.0,0.0,0.0,0.0,0.0,0.0,0.0,0.0,0.0,0.0,0.0,0.0,0.0,0.0,0.0,0.0,0.0,0.0,0.0,0.0,0.0,0.0,0.0,0.0,0.0,0.0,0.0,0.0,0.0,0.0,0.0,0.0,0.0,0.0,0.0,0.0,0.0,0.0,0.0,0.0,0.0,0.0,0.0,0.0,0.0,0.0,0.0,0.0,0.0,0.0,0.0,0.0,0.0,0.0,0.0,0.0,0.0,0.0,0.0,0.0,0.0,0.0,0.0,0.0,0.0,0.0,0.0,0.0,0.0,0.0,0.0,0.0,0.0,0.0,0.0,0.0,0.0,0.0,0.0,0.0,0.0,0.0,0.0,0.0,0.0,0.0,0.0,0.0,0.0,0.0,0.0,0.0,0.0,0.0,0.0,0.0,0.0,0.0,0.0,0.0,0.0,0.0,0.0,0.0,0.0,0.0,0.0,0.0,0.0,0.0,0.0,0.0,0.0,0.0,0.0,0.0,0.0,0.0,0.0,0.0,0.0,0.0,0.0,0.0,0.0,0.0,0.0,0.0,0.0,0.0,0.0,0.0,0.0,0.0,0.0,0.0,0.0,0.0,0.0,0.0,0.0,0.0,0.0,0.0,0.0,0.0,0.0,0.0,0.0,0.0,0.0,0.0,0.0,0.0,0.0,0.0,0.0,0.0,0.0,0.0,0.0,0.0,0.0,0.0,0.0,0.0,0.0,0.0,0.0,0.0,0.0,0.0,0.0,0.0,0.0,0.0,0.0,0.0,0.0,0.0,0.0,0.0,0.0,0.0,0.0,0.0,0.0,0.0,0.0,0.0,0.0,0.0,0.0,0.0,0.0,0.0,0.0,0.0,0.0,0.0,0.0,0.0,0.0,0.0,0.0,0.0,0.0,0.0
-0.0014265601701093599,0.0006102037053262906,0.004840452246402846,0.01103915649094564,0.018679703326699586,0.027025457547066634,0.03519354001148082,0.04251730442796982,0.048474144287362055,0.05279815427495521,0.055477475264242626,0.05663575237303889,0.056650538041206726,0.05590737787072729,0.05477198087515552,0.05354419990086599,0.0522504305614492,0.051323471060903694,0.05086937499990595,0.050950435528983214,0.05161092453748935,0.052560780988594354,0.054300645134693175,0.05675176462042432,0.05972861762624434,0.06298276184452758,0.06587402569269508,0.0685819047936847,0.07098044415901827,0.07295134832457925,0.07435459915156582,0.07459755111999272,0.07388833084992949,0.07236946991097494,0.07031997127044422,0.0680882089369281,0.06579995858487908,0.0638788095071194,0.0625401397128332,0.06187007396162747,0.06182181872229036,0.062258336595711276,0.06297696615707395,0.06377005703843601,0.06448951705593657,0.065081531597492,0.06557329454044954,0.06607928946787282,0.06669969253865857,0.06747393268347428,0.06834124447269364,0.06910047798189185,0.06956383013293836,0.06954532724009942,0.06896059748425895,0.0678870019904609,0.06650908091900928,0.06531826446870449,0.0648169029590416,0.06544426145196097,0.06743275950822814,0.0,0.0,0.0,0.0,0.0,0.0,0.0,0.0,0.0,0.0,0.0,0.0,0.0,0.0,0.0,0.0,0.0,0.0,0.0,0.0,0.0,0.0,0.0,0.0,0.0,0.0,0.0,0.0,0.0,0.0,0.0,0.0,0.0,0.0,0.0,0.0,0.0,0.0,0.0,0.0,0.0,0.0,0.0,0.0,0.0,0.0,0.0,0.0,0.0,0.0,0.0,0.0,0.0,0.0,0.0,0.0,0.0,0.0,0.0,0.0,0.0,0.0,0.0,0.0,0.0,0.0,0.0,0.0,0.0,0.0,0.0,0.0,0.0,0.0,0.0,0.0,0.0,0.0,0.0,0.0,0.0,0.0,0.0,0.0,0.0,0.0,0.0,0.0,0.0,0.0,0.0,0.0,0.0,0.0,0.0,0.0,0.0,0.0,0.0,0.0,0.0,0.0,0.0,0.0,0.0,0.0,0.0,0.0,0.0,0.0,0.0,0.0,0.0,0.0,0.0,0.0,0.0,0.0,0.0,0.0,0.0,0.0,0.0,0.0,0.0,0.0,0.0,0.0,0.0,0.0,0.0,0.0,0.0,0.0,0.0,0.0,0.0,0.0,0.0,0.0,0.0,0.0,0.0,0.0,0.0,0.0,0.0,0.0,0.0,0.0,0.0,0.0,0.0,0.0,0.0,0.0,0.0,0.0,0.0,0.0,0.0,0.0,0.0,0.0,0.0,0.0,0.0,0.0,0.0,0.0,0.0,0.0,0.0,0.0,0.0,0.0,0.0,0.0,0.0,0.0,0.0,0.0,0.0,0.0,0.0,0.0,0.0,0.0,0.0,0.0,0.0,0.0,0.0,0.0,0.0,0.0,0.0,0.0,0.0,0.0,0.0,0.0,0.0,0.0,0.0,0.0,0.0,0.0,0.0,0.0,0.0,0.0,0.0,0.0,0.0,0.0,0.0,0.0,0.0,0.0,0.0,0.0,0.0,0.0,0.0,0.0,0.0,0.0,0.0,0.0,0.0,0.0,0.0,0.0,0.0,0.0,0.0,0.0,0.0
0.06910047798189185,0.06956383013293836,0.06954532724009942,0.06896059748425895,0.0678870019904609,0.06650908091900928,0.06531826446870449,0.0648169029590416,0.06544426145196097,0.06743275950822814,0.07058726485185647,0.07460650379316427,0.07882658882319647,0.08249677060872686,0.08503895608626756,0.08622843332539468,0.08677973653503478,0.0881472892367857,0.09254442643899773,0.10264515266430699,0.12098140598136525,0.14965144119383117,0.1893881542902053,0.2391627321102797,0.2959684529709693,0.35485532082005866,0.40981403652008735,0.4542798994837053,0.48225148904562254,0.4892917532776315,0.4731993142958191,0.4348097277023479,0.37758122575629766,0.30720662997550746,0.23074725874506824,0.15544729199249552,0.08805020900186712,0.033555077958850446,-0.005222266883971324,-0.02779723578749506,-0.03589347849549123,-0.032505428979194624,-0.021526895782510765,-0.0068927860178328365,0.008055404554530167,0.020864239845117354,0.0305230503286788,0.037000384596258824,0.041067879077844135,0.04390804489655539,0.04658848310379616,0.05015321224595932,0.05505586493558567,0.061240604092694086,0.06823641210695373,0.07521851648031573,0.08158193936079958,0.08675923231859746,0.09043385639559667,0.09256477931735207,0.09323708577918481,0.0,0.0,0.0,0.0,0.0,0.0,0.0,0.0,0.0,0.0,0.0,0.0,0.0,0.0,0.0,0.0,0.0,0.0,0.0,0.0,0.0,0.0,0.0,0.0,0.0,0.0,0.0,0.0,0.0,0.0,0.0,0.0,0.0,0.0,0.0,0.0,0.0,0.0,0.0,0.0,0.0,0.0,0.0,0.0,0.0,0.0,0.0,0.0,0.0,0.0,0.0,0.0,0.0,0.0,0.0,0.0,0.0,0.0,0.0,0.0,0.0,0.0,0.0,0.0,0.0,0.0,0.0,0.0,0.0,0.0,0.0,0.0,0.0,0.0,0.0,0.0,0.0,0.0,0.0,0.0,0.0,0.0,0.0,0.0,0.0,0.0,0.0,0.0,0.0,0.0,0.0,0.0,0.0,0.0,0.0,0.0,0.0,0.0,0.0,0.0,0.0,0.0,0.0,0.0,0.0,0.0,0.0,0.0,0.0,0.0,0.0,0.0,0.0,0.0,0.0,0.0,0.0,0.0,0.0,0.0,0.0,0.0,0.0,0.0,0.0,0.0,0.0,0.0,0.0,0.0,0.0,0.0,0.0,0.0,0.0,0.0,0.0,0.0,0.0,0.0,0.0,0.0,0.0,0.0,0.0,0.0,0.0,0.0,0.0,0.0,0.0,0.0,0.0,0.0,0.0,0.0,0.0,0.0,0.0,0.0,0.0,0.0,0.0,0.0,0.0,0.0,0.0,0.0,0.0,0.0,0.0,0.0,0.0,0.0,0.0,0.0,0.0,0.0,0.0,0.0,0.0,0.0,0.0,0.0,0.0,0.0,0.0,0.0,0.0,0.0,0.0,0.0,0.0,0.0,0.0,0.0,0.0,0.0,0.0,0.0,0.0,0.0,0.0,0.0,0.0,0.0,0.0,0.0,0.0,0.0,0.0,0.0,0.0,0.0,0.0,0.0,0.0,0.0,0.0,0.0,0.0,0.0,0.0,0.0,0.0,0.0,0.0,0.0,0.0,0.0,0.0,0.0,0.0,0.0,0.0,0.0,0.0,0.0,0.0
0.05015321224595932,0.05505586493558567,0.061240604092694086,0.06823641210695373,0.07521851648031573,0.08158193936079958,0.08675923231859746,0.09043385639559667,0.09256477931735207,0.09323708577918481,0.09290572409794728,0.09196730471289827,0.090776191856536,0.08959401841716856,0.08844026561548497,0.08754424510945613,0.08694572391357959,0.08664687373947322,0.08662325751698507,0.08665647265309986,0.08687381258378339,0.08722549456592275,0.08764996154145559,0.08808538116609384,0.08822795771409377,0.08842792836840316,0.08869915258525599,0.08906082467356756,0.08954750481520257,0.08986055219024901,0.09057640957734213,0.09165971284433408,0.09298822152627216,0.09440833095719665,0.09542855845100208,0.09638915378804007,0.09732740786505224,0.09828554737827154,0.09926915709919074,0.0998553508819603,0.10026195223930455,0.10058338794966915,0.1009555720177672,0.10149728967608078,0.1020268660130789,0.10266149607332871,0.10329839730987357,0.10374172809987785,0.10372542225297082,0.1028929553890519,0.101094724215035,0.09824039297100706,0.09442221695907378,0.08993650298095983,0.08516368015207482,0.08081826310471858,0.07753568361464594,0.07586008835307273,0.07614758370894885,0.07838032577253777,0.08255704669927953,0.0,0.0,0.0,0.0,0.0,0.0,0.0,0.0,0.0,0.0,0.0,0.0,0.0,0.0,0.0,0.0,0.0,0.0,0.0,0.0,0.0,0.0,0.0,0.0,0.0,0.0,0.0,0.0,0.0,0.0,0.0,0.0,0.0,0.0,0.0,0.0,0.0,0.0,0.0,0.0,0.0,0.0,0.0,0.0,0.0,0.0,0.0,0.0,0.0,0.0,0.0,0.0,0.0,0.0,0.0,0.0,0.0,0.0,0.0,0.0,0.0,0.0,0.0,0.0,0.0,0.0,0.0,0.0,0.0,0.0,0.0,0.0,0.0,0.0,0.0,0.0,0.0,0.0,0.0,0.0,0.0,0.0,0.0,0.0,0.0,0.0,0.0,0.0,0.0,0.0,0.0,0.0,0.0,0.0,0.0,0.0,0.0,0.0,0.0,0.0,0.0,0.0,0.0,0.0,0.0,0.0,0.0,0.0,0.0,0.0,0.0,0.0,0.0,0.0,0.0,0.0,0.0,0.0,0.0,0.0,0.0,0.0,0.0,0.0,0.0,0.0,0.0,0.0,0.0,0.0,0.0,0.0,0.0,0.0,0.0,0.0,0.0,0.0,0.0,0.0,0.0,0.0,0.0,0.0,0.0,0.0,0.0,0.0,0.0,0.0,0.0,0.0,0.0,0.0,0.0,0.0,0.0,0.0,0.0,0.0,0.0,0.0,0.0,0.0,0.0,0.0,0.0,0.0,0.0,0.0,0.0,0.0,0.0,0.0,0.0,0.0,0.0,0.0,0.0,0.0,0.0,0.0,0.0,0.0,0.0,0.0,0.0,0.0,0.0,0.0,0.0,0.0,0.0,0.0,0.0,0.0,0.0,0.0,0.0,0.0,0.0,0.0,0.0,0.0,0.0,0.0,0.0,0.0,0.0,0.0,0.0,0.0,0.0,0.0,0.0,0.0,0.0,0.0,0.0,0.0,0.0,0.0,0.0,0.0,0.0,0.0,0.0,0.0,0.0,0.0,0.0,0.0,0.0,0.0,0.0,0.0,0.0,0.0,0.0
0.08081826310471858,0.07753568361464594,0.07586008835307273,0.07614758370894885,0.07838032577253777,0.08255704669927953,0.0883181123344385,0.09514520862110494,0.1024508506268398,0.10953818993162184,0.11605828786625419,0.12162823055055764,0.12594468383189633,0.12875411754473076,0.12970423704224526,0.12874043691688417,0.1257533083710009,0.12079348179404234,0.1141983175299774,0.10661291945744443,0.09943206913766554,0.0944306751956202,0.09375217666267988,0.09964251751522407,0.11397006321004996,0.13809064474725033,0.1720874899367029,0.21458942391313213,0.26270286289030004,0.31211547238167175,0.35791814694258783,0.39493029649529093,0.4186042271249469,0.42576320826537606,0.41503028532364816,0.38743131085454496,0.34587726146994335,0.29483188016141165,0.23961358390094872,0.1854616722085053,0.13719770915002857,0.09820685652663025,0.07025464449587619,0.053463959536521354,0.046411462994846796,0.047033366379134,0.052667506754123135,0.06069818980345382,0.06894949366251366,0.0757862443056951,0.08061288908126603,0.08335877029474728,0.0844215297401911,0.08443502778850596,0.08392688737189541,0.08354905270051198,0.08360644906911395,0.08416106907208538,0.08507718725727512,0.08596146869086362,0.08668812020704177,0.0,0.0,0.0,0.0,0.0,0.0,0.0,0.0,0.0,0.0,0.0,0.0,0.0,0.0,0.0,0.0,0.0,0.0,0.0,0.0,0.0,0.0,0.0,0.0,0.0,0.0,0.0,0.0,0.0,0.0,0.0,0.0,0.0,0.0,0.0,0.0,0.0,0.0,0.0,0.0,0.0,0.0,0.0,0.0,0.0,0.0,0.0,0.0,0.0,0.0,0.0,0.0,0.0,0.0,0.0,0.0,0.0,0.0,0.0,0.0,0.0,0.0,0.0,0.0,0.0,0.0,0.0,0.0,0.0,0.0,0.0,0.0,0.0,0.0,0.0,0.0,0.0,0.0,0.0,0.0,0.0,0.0,0.0,0.0,0.0,0.0,0.0,0.0,0.0,0.0,0.0,0.0,0.0,0.0,0.0,0.0,0.0,0.0,0.0,0.0,0.0,0.0,0.0,0.0,0.0,0.0,0.0,0.0,0.0,0.0,0.0,0.0,0.0,0.0,0.0,0.0,0.0,0.0,0.0,0.0,0.0,0.0,0.0,0.0,0.0,0.0,0.0,0.0,0.0,0.0,0.0,0.0,0.0,0.0,0.0,0.0,0.0,0.0,0.0,0.0,0.0,0.0,0.0,0.0,0.0,0.0,0.0,0.0,0.0,0.0,0.0,0.0,0.0,0.0,0.0,0.0,0.0,0.0,0.0,0.0,0.0,0.0,0.0,0.0,0.0,0.0,0.0,0.0,0.0,0.0,0.0,0.0,0.0,0.0,0.0,0.0,0.0,0.0,0.0,0.0,0.0,0.0,0.0,0.0,0.0,0.0,0.0,0.0,0.0,0.0,0.0,0.0,0.0,0.0,0.0,0.0,0.0,0.0,0.0,0.0,0.0,0.0,0.0,0.0,0.0,0.0,0.0,0.0,0.0,0.0,0.0,0.0,0.0,0.0,0.0,0.0,0.0,0.0,0.0,0.0,0.0,0.0,0.0,0.0,0.0,0.0,0.0,0.0,0.0,0.0,0.0,0.0,0.0,0.0,0.0,0.0,0.0,0.0,0.0
0.08335877029474728,0.0844215297401911,0.08443502778850596,0.08392688737189541,0.08354905270051198,0.08360644906911395,0.08416106907208538,0.08507718725727512,0.08596146869086362,0.08668812020704177,0.08700923972758337,0.08673014434645733,0.08571934672604428,0.08375426236220514,0.08101156200334693,0.07755120296252306,0.07349656481921535,0.06905333614414554,0.06437173132194515,0.05999628154454502,0.05633169391491676,0.05372394401241432,0.052387325562246796,0.05221340931726313,0.05319975553278794,0.05503299946133045,0.057302502110703396,0.05960041332866495,0.06116148333169434,0.06240670417850541,0.06353964136484443,0.06489590030207289,0.0668135010950831,0.06871405893373819,0.0715181617681905,0.0752479653801544,0.07974957835879307,0.08473271055035558,0.08941618711995226,0.09384763208292216,0.09770558368963328,0.10070834894293376,0.10265192000562806,0.10343258104323412,0.10312393487198027,0.1018844134407317,0.09998826436137033,0.09779491184433826,0.09564818860784817,0.09396408722141975,0.09295814531478636,0.09266592186214455,0.09293790368304844,0.09340301065563689,0.09382094990219275,0.0938900619650626,0.09344714594493389,0.09253551208654963,0.09130799082137492,0.09030149735020172,0.0899556800075747,0.0,0.0,0.0,0.0,0.0,0.0,0.0,0.0,0.0,0.0,0.0,0.0,0.0,0.0,0.0,0.0,0.0,0.0,0.0,0.0,0.0,0.0,0.0,0.0,0.0,0.0,0.0,0.0,0.0,0.0,0.0,0.0,0.0,0.0,0.0,0.0,0.0,0.0,0.0,0.0,0.0,0.0,0.0,0.0,0.0,0.0,0.0,0.0,0.0,0.0,0.0,0.0,0.0,0.0,0.0,0.0,0.0,0.0,0.0,0.0,0.0,0.0,0.0,0.0,0.0,0.0,0.0,0.0,0.0,0.0,0.0,0.0,0.0,0.0,0.0,0.0,0.0,0.0,0.0,0.0,0.0,0.0,0.0,0.0,0.0,0.0,0.0,0.0,0.0,0.0,0.0,0.0,0.0,0.0,0.0,0.0,0.0,0.0,0.0,0.0,0.0,0.0,0.0,0.0,0.0,0.0,0.0,0.0,0.0,0.0,0.0,0.0,0.0,0.0,0.0,0.0,0.0,0.0,0.0,0.0,0.0,0.0,0.0,0.0,0.0,0.0,0.0,0.0,0.0,0.0,0.0,0.0,0.0,0.0,0.0,0.0,0.0,0.0,0.0,0.0,0.0,0.0,0.0,0.0,0.0,0.0,0.0,0.0,0.0,0.0,0.0,0.0,0.0,0.0,0.0,0.0,0.0,0.0,0.0,0.0,0.0,0.0,0.0,0.0,0.0,0.0,0.0,0.0,0.0,0.0,0.0,0.0,0.0,0.0,0.0,0.0,0.0,0.0,0.0,0.0,0.0,0.0,0.0,0.0,0.0,0.0,0.0,0.0,0.0,0.0,0.0,0.0,0.0,0.0,0.0,0.0,0.0,0.0,0.0,0.0,0.0,0.0,0.0,0.0,0.0,0.0,0.0,0.0,0.0,0.0,0.0,0.0,0.0,0.0,0.0,0.0,0.0,0.0,0.0,0.0,0.0,0.0,0.0,0.0,0.0,0.0,0.0,0.0,0.0,0.0,0.0,0.0,0.0,0.0,0.0,0.0,0.0,0.0,0.0
0.09266592186214455,0.09293790368304844,0.09340301065563689,0.09382094990219275,0.0938900619650626,0.09344714594493389,0.09253551208654963,0.09130799082137492,0.09030149735020172,0.0899556800075747,0.09056485351733817,0.09213312049005083,0.09416553501258851,0.09610497537922229,0.09707561388879299,0.09627693311464738,0.09332692813661442,0.08851300872693017,0.0833417560784587,0.0802995842726698,0.08275976748539184,0.09452073578317803,0.11905435760060473,0.1588720785583193,0.21453865580431716,0.28417083094521295,0.36325447139032085,0.44487361039774337,0.5207217386180312,0.582025719689272,0.6209714768980678,0.6319882069974636,0.6126320840456281,0.564307181510235,0.4918276949060711,0.402766265169304,0.30627761158965283,0.21159667045342107,0.12707274673796423,0.05873421532707435,0.009796247308574932,-0.01943298381815803,-0.03131284355571471,-0.029646663393979134,-0.019229941954547098,-0.004782683407411528,0.009799481260041465,0.021781606138004127,0.030155362677576594,0.0350549599981486,0.037521990807107386,0.039031946338240954,0.040916845169981564,0.04437103376608938,0.04986313070941409,0.05722648499365772,0.06577578831540713,0.07440974577152931,0.08219366788354845,0.08819722149872937,0.09175249537847617,0.0,0.0,0.0,0.0,0.0,0.0,0.0,0.0,0.0,0.0,0.0,0.0,0.0,0.0,0.0,0.0,0.0,0.0,0.0,0.0,0.0,0.0,0.0,0.0,0.0,0.0,0.0,0.0,0.0,0.0,0.0,0.0,0.0,0.0,0.0,0.0,0.0,0.0,0.0,0.0,0.0,0.0,0.0,0.0,0.0,0.0,0.0,0.0,0.0,0.0,0.0,0.0,0.0,0.0,0.0,0.0,0.0,0.0,0.0,0.0,0.0,0.0,0.0,0.0,0.0,0.0,0.0,0.0,0.0,0.0,0.0,0.0,0.0,0.0,0.0,0.0,0.0,0.0,0.0,0.0,0.0,0.0,0.0,0.0,0.0,0.0,0.0,0.0,0.0,0.0,0.0,0.0,0.0,0.0,0.0,0.0,0.0,0.0,0.0,0.0,0.0,0.0,0.0,0.0,0.0,0.0,0.0,0.0,0.0,0.0,0.0,0.0,0.0,0.0,0.0,0.0,0.0,0.0,0.0,0.0,0.0,0.0,0.0,0.0,0.0,0.0,0.0,0.0,0.0,0.0,0.0,0.0,0.0,0.0,0.0,0.0,0.0,0.0,0.0,0.0,0.0,0.0,0.0,0.0,0.0,0.0,0.0,0.0,0.0,0.0,0.0,0.0,0.0,0.0,0.0,0.0,0.0,0.0,0.0,0.0,0.0,0.0,0.0,0.0,0.0,0.0,0.0,0.0,0.0,0.0,0.0,0.0,0.0,0.0,0.0,0.0,0.0,0.0,0.0,0.0,0.0,0.0,0.0,0.0,0.0,0.0,0.0,0.0,0.0,0.0,0.0,0.0,0.0,0.0,0.0,0.0,0.0,0.0,0.0,0.0,0.0,0.0,0.0,0.0,0.0,0.0,0.0,0.0,0.0,0.0,0.0,0.0,0.0,0.0,0.0,0.0,0.0,0.0,0.0,0.0,0.0,0.0,0.0,0.0,0.0,0.0,0.0,0.0,0.0,0.0,0.0,0.0,0.0,0.0,0.0,0.0,0.0,0.0,0.0
0.039031946338240954,0.040916845169981564,0.04437103376608938,0.04986313070941409,0.05722648499365772,0.06577578831540713,0.07440974577152931,0.08219366788354845,0.08819722149872937,0.09175249537847617,0.0925196302925733,0.09038650278407127,0.0857483713442974,0.07909078595546065,0.071038858300883,0.062303441211938426,0.053512945908688374,0.045540190341675224,0.03903607252020289,0.03447556375350584,0.032087252131303555,0.03167464066088217,0.03306410570148933,0.035726469521900346,0.03902392416251827,0.04234789278199402,0.04497531800269232,0.0471362669391301,0.04890829165548506,0.050584616899798464,0.052608533432684484,0.05504265000027296,0.05893881138198092,0.06438873622524466,0.07114105384938554,0.07867776120600845,0.08608287260167903,0.09300203394224213,0.09876227743037568,0.10279925647563466,0.10474698897933238,0.10442738713314308,0.10205285299214555,0.09806907694872782,0.09309397723736128,0.08779843290706525,0.08269496310422905,0.07830518796121745,0.07488536769035296,0.07246147413181858,0.07084987683479813,0.0696064350070799,0.06845911141679764,0.06709806439525064,0.06533929954480361,0.06316854896864228,0.060627135726815114,0.05816326738200595,0.05620718892852626,0.05519638578647007,0.05548722110248647,0.0,0.0,0.0,0.0,0.0,0.0,0.0,0.0,0.0,0.0,0.0,0.0,0.0,0.0,0.0,0.0,0.0,0.0,0.0,0.0,0.0,0.0,0.0,0.0,0.0,0.0,0.0,0.0,0.0,0.0,0.0,0.0,0.0,0.0,0.0,0.0,0.0,0.0,0.0,0.0,0.0,0.0,0.0,0.0,0.0,0.0,0.0,0.0,0.0,0.0,0.0,0.0,0.0,0.0,0.0,0.0,0.0,0.0,0.0,0.0,0.0,0.0,0.0,0.0,0.0,0.0,0.0,0.0,0.0,0.0,0.0,0.0,0.0,0.0,0.0,0.0,0.0,0.0,0.0,0.0,0.0,0.0,0.0,0.0,0.0,0.0,0.0,0.0,0.0,0.0,0.0,0.0,0.0,0.0,0.0,0.0,0.0,0.0,0.0,0.0,0.0,0.0,0.0,0.0,0.0,0.0,0.0,0.0,0.0,0.0,0.0,0.0,0.0,0.0,0.0,0.0,0.0,0.0,0.0,0.0,0.0,0.0,0.0,0.0,0.0,0.0,0.0,0.0,0.0,0.0,0.0,0.0,0.0,0.0,0.0,0.0,0.0,0.0,0.0,0.0,0.0,0.0,0.0,0.0,0.0,0.0,0.0,0.0,0.0,0.0,0.0,0.0,0.0,0.0,0.0,0.0,0.0,0.0,0.0,0.0,0.0,0.0,0.0,0.0,0.0,0.0,0.0,0.0,0.0,0.0,0.0,0.0,0.0,0.0,0.0,0.0,0.0,0.0,0.0,0.0,0.0,0.0,0.0,0.0,0.0,0.0,0.0,0.0,0.0,0.0,0.0,0.0,0.0,0.0,0.0,0.0,0.0,0.0,0.0,0.0,0.0,0.0,0.0,0.0,0.0,0.0,0.0,0.0,0.0,0.0,0.0,0.0,0.0,0.0,0.0,0.0,0.0,0.0,0.0,0.0,0.0,0.0,0.0,0.0,0.0,0.0,0.0,0.0,0.0,0.0,0.0,0.0,0.0,0.0,0.0,0.0,0.0,0.0,0.0
0.08754380595270275,0.09192993535004071,0.09520520680520103,0.09733980745344323,0.09837347279876169,0.0986385708197255,0.09845849819991913,0.09814496032097646,0.09793367489864228,0.09784680862068793,0.09797998681833436,0.09824543551569156,0.09848760685080565,0.09852754234384133,0.09810246931653649,0.0972308735044224,0.09592248910907733,0.09426770141374252,0.09241814896062557,0.09032256886915292,0.08842748804190667,0.08699897798074613,0.08625428394995709,0.08630875557740979,0.08677356333196791,0.0878863146426593,0.08955707644510387,0.09165548928698482,0.09401372777526164,0.09621541333879784,0.09825434256956851,0.09995186768565252,0.1011469308133489,0.10171869997311349,0.10155935338376447,0.1007704307578497,0.09945423904445945,0.09778013652420048,0.09596280704552443,0.09415181091491327,0.09262415146571204,0.09148606305873838,0.09072454731542225,0.09020691411793538,0.08961783889026499,0.08881976117892612,0.08763408450656841,0.08599285460960854,0.08397613441948207,0.08170830974234707,0.07964221896397893,0.07814006063039049,0.07747649212185707,0.07774535472102871,0.07869472318939248,0.08009025658002845,0.08141218993441958,0.08212686643004269,0.08188387388896987,0.0806190263097603,0.0790289638183554,0.0,0.0,0.0,0.0,0.0,0.0,0.0,0.0,0.0,0.0,0.0,0.0,0.0,0.0,0.0,0.0,0.0,0.0,0.0,0.0,0.0,0.0,0.0,0.0,0.0,0.0,0.0,0.0,0.0,0.0,0.0,0.0,0.0,0.0,0.0,0.0,0.0,0.0,0.0,0.0,0.0,0.0,0.0,0.0,0.0,0.0,0.0,0.0,0.0,0.0,0.0,0.0,0.0,0.0,0.0,0.0,0.0,0.0,0.0,0.0,0.0,0.0,0.0,0.0,0.0,0.0,0.0,0.0,0.0,0.0,0.0,0.0,0.0,0.0,0.0,0.0,0.0,0.0,0.0,0.0,0.0,0.0,0.0,0.0,0.0,0.0,0.0,0.0,0.0,0.0,0.0,0.0,0.0,0.0,0.0,0.0,0.0,0.0,0.0,0.0,0.0,0.0,0.0,0.0,0.0,0.0,0.0,0.0,0.0,0.0,0.0,0.0,0.0,0.0,0.0,0.0,0.0,0.0,0.0,0.0,0.0,0.0,0.0,0.0,0.0,0.0,0.0,0.0,0.0,0.0,0.0,0.0,0.0,0.0,0.0,0.0,0.0,0.0,0.0,0.0,0.0,0.0,0.0,0.0,0.0,0.0,0.0,0.0,0.0,0.0,0.0,0.0,0.0,0.0,0.0,0.0,0.0,0.0,0.0,0.0,0.0,0.0,0.0,0.0,0.0,0.0,0.0,0.0,0.0,0.0,0.0,0.0,0.0,0.0,0.0,0.0,0.0,0.0,0.0,0.0,0.0,0.0,0.0,0.0,0.0,0.0,0.0,0.0,0.0,0.0,0.0,0.0,0.0,0.0,0.0,0.0,0.0,0.0,0.0,0.0,0.0,0.0,0.0,0.0,0.0,0.0,0.0,0.0,0.0,0.0,0.0,0.0,0.0,0.0,0.0,0.0,0.0,0.0,0.0,0.0,0.0,0.0,0.0,0.0,0.0,0.0,0.0,0.0,0.0,0.0,0.0,0.0,0.0,0.0,0.0,0.0,0.0,0.0,0.0
0.07814006063039049,0.07747649212185707,0.07774535472102871,0.07869472318939248,0.08009025658002845,0.08141218993441958,0.08212686643004269,0.08188387388896987,0.0806190263097603,0.0790289638183554,0.07826465219300623,0.07996357832579892,0.086022393056911,0.09815891750047322,0.11778012346487761,0.14524279322255249,0.17966834383272526,0.21884518301277459,0.2592950060849966,0.29693196759895096,0.3273359386151569,0.34653632284108155,0.35166797296863817,0.34139758089562,0.3164154183319022,0.27908581640819313,0.23319008173759456,0.1833556657682378,0.13427261981864794,0.0903587478115757,0.054857553520452206,0.029623861817475634,0.015043358567837452,0.010057952204226365,0.01292042217255326,0.021194289300978338,0.03233533468697368,0.044073702672526825,0.05454822086551995,0.06284764789403821,0.06856990559867936,0.07183466480089416,0.0731040467772162,0.07286104554521765,0.07186404518891341,0.070615200020106,0.06943589458610955,0.06846557918687152,0.06758513634081609,0.06682518654341847,0.06604724107427123,0.0650961003462289,0.06382711159652683,0.06203408953296463,0.05976446074503501,0.057019917529470054,0.05387030720530222,0.05046115972335134,0.04691010903807319,0.04359032895649428,0.04075184177622682,0.0,0.0,0.0,0.0,0.0,0.0,0.0,0.0,0.0,0.0,0.0,0.0,0.0,0.0,0.0,0.0,0.0,0.0,0.0,0.0,0.0,0.0,0.0,0.0,0.0,0.0,0.0,0.0,0.0,0.0,0.0,0.0,0.0,0.0,0.0,0.0,0.0,0.0,0.0,0.0,0.0,0.0,0.0,0.0,0.0,0.0,0.0,0.0,0.0,0.0,0.0,0.0,0.0,0.0,0.0,0.0,0.0,0.0,0.0,0.0,0.0,0.0,0.0,0.0,0.0,0.0,0.0,0.0,0.0,0.0,0.0,0.0,0.0,0.0,0.0,0.0,0.0,0.0,0.0,0.0,0.0,0.0,0.0,0.0,0.0,0.0,0.0,0.0,0.0,0.0,0.0,0.0,0.0,0.0,0.0,0.0,0.0,0.0,0.0,0.0,0.0,0.0,0.0,0.0,0.0,0.0,0.0,0.0,0.0,0.0,0.0,0.0,0.0,0.0,0.0,0.0,0.0,0.0,0.0,0.0,0.0,0.0,0.0,0.0,0.0,0.0,0.0,0.0,0.0,0.0,0.0,0.0,0.0,0.0,0.0,0.0,0.0,0.0,0.0,0.0,0.0,0.0,0.0,0.0,0.0,0.0,0.0,0.0,0.0,0.0,0.0,0.0,0.0,0.0,0.0,0.0,0.0,0.0,0.0,0.0,0.0,0.0,0.0,0.0,0.0,0.0,0.0,0.0,0.0,0.0,0.0,0.0,0.0,0.0,0.0,0.0,0.0,0.0,0.0,0.0,0.0,0.0,0.0,0.0,0.0,0.0,0.0,0.0,0.0,0.0,0.0,0.0,0.0,0.0,0.0,0.0,0.0,0.0,0.0,0.0,0.0,0.0,0.0,0.0,0.0,0.0,0.0,0.0,0.0,0.0,0.0,0.0,0.0,0.0,0.0,0.0,0.0,0.0,0.0,0.0,0.0,0.0,0.0,0.0,0.0,0.0,0.0,0.0,0.0,0.0,0.0,0.0,0.0,0.0,0.0,0.0,0.0,0.0,0.0
0.0650961003462289,0.06382711159652683,0.06203408953296463,0.05976446074503501,0.057019917529470054,0.05387030720530222,0.05046115972335134,0.04691010903807319,0.04359032895649428,0.04075184177622682,0.038569379120523516,0.037095207850175865,0.03613819326661221,0.035606227820872985,0.0352162518693743,0.03468832275820434,0.033839473018976066,0.032491273963775096,0.03109155692077276,0.030005085669473713,0.029685015604332274,0.030583738187776262,0.03281086245339224,0.03688804376284309,0.04266133430369797,0.049682698865726516,0.05731091979863955,0.06450041823653796,0.07102453268408303,0.07652859727645135,0.08086069878589845,0.08403810140950284,0.08573317956106906,0.08655002217559042,0.08692663721590262,0.08729923042607365,0.08798600154065331,0.0888327640708815,0.08995485519129282,0.09110632772057634,0.09190818585007712,0.09193390167180379,0.09074424869840825,0.08821796987767308,0.08436588019284724,0.07944199363038525,0.073914985090102,0.06831608606500604,0.06334586152436147,0.059493632794463014,0.05701676349987179,0.05589606850840022,0.05579246661998034,0.056361354565190126,0.05713793023537356,0.05774979946107474,0.058019124317054305,0.057962674055518956,0.05787921244432054,0.05808592179535491,0.05882741339061789,0.0,0.0,0.0,0.0,0.0,0.0,0.0,0.0,0.0,0.0,0.0,0.0,0.0,0.0,0.0,0.0,0.0,0.0,0.0,0.0,0.0,0.0,0.0,0.0,0.0,0.0,0.0,0.0,0.0,0.0,0.0,0.0,0.0,0.0,0.0,0.0,0.0,0.0,0.0,0.0,0.0,0.0,0.0,0.0,0.0,0.0,0.0,0.0,0.0,0.0,0.0,0.0,0.0,0.0,0.0,0.0,0.0,0.0,0.0,0.0,0.0,0.0,0.0,0.0,0.0,0.0,0.0,0.0,0.0,0.0,0.0,0.0,0.0,0.0,0.0,0.0,0.0,0.0,0.0,0.0,0.0,0.0,0.0,0.0,0.0,0.0,0.0,0.0,0.0,0.0,0.0,0.0,0.0,0.0,0.0,0.0,0.0,0.0,0.0,0.0,0.0,0.0,0.0,0.0,0.0,0.0,0.0,0.0,0.0,0.0,0.0,0.0,0.0,0.0,0.0,0.0,0.0,0.0,0.0,0.0,0.0,0.0,0.0,0.0,0.0,0.0,0.0,0.0,0.0,0.0,0.0,0.0,0.0,0.0,0.0,0.0,0.0,0.0,0.0,0.0,0.0,0.0,0.0,0.0,0.0,0.0,0.0,0.0,0.0,0.0,0.0,0.0,0.0,0.0,0.0,0.0,0.0,0.0,0.0,0.0,0.0,0.0,0.0,0.0,0.0,0.0,0.0,0.0,0.0,0.0,0.0,0.0,0.0,0.0,0.0,0.0,0.0,0.0,0.0,0.0,0.0,0.0,0.0,0.0,0.0,0.0,0.0,0.0,0.0,0.0,0.0,0.0,0.0,0.0,0.0,0.0,0.0,0.0,0.0,0.0,0.0,0.0,0.0,0.0,0.0,0.0,0.0,0.0,0.0,0.0,0.0,0.0,0.0,0.0,0.0,0.0,0.0,0.0,0.0,0.0,0.0,0.0,0.0,0.0,0.0,0.0,0.0,0.0,0.0,0.0,0.0,0.0,0.0,0.0,0.0,0.0,0.0,0.0,0.0
0.05589606850840022,0.05579246661998034,0.056361354565190126,0.05713793023537356,0.05774979946107474,0.058019124317054305,0.057962674055518956,0.05787921244432054,0.05808592179535491,0.05882741339061789,0.060142180125708385,0.06177634520036488,0.06322491110970896,0.0637863052051138,0.06281566813668707,0.060018992184772,0.05572609900603078,0.05116718012481178,0.04842558400798055,0.05029794712814969,0.05989580424383563,0.08002960462418318,0.11264415086817577,0.1580790680939031,0.21468127826284922,0.2787055822577821,0.34456773567241267,0.40566570326592283,0.45516445114385906,0.4871304065843323,0.4975153602717285,0.48479780482941653,0.4504225710942538,0.3983385362048639,0.33441935478719637,0.2655095162680698,0.1983196626307709,0.13863042814643434,0.09037171590086143,0.05538571776432452,0.03350367226441102,0.022907230298965808,0.020880630149841317,0.024249317820140486,0.03004723981937606,0.035937634634292115,0.04024872485861954,0.04248156030800634,0.04264750115498456,0.041125215449856596,0.03837159700417322,0.03441627043640453,0.02966612290142721,0.024200526359105475,0.018067787456456357,0.011393820178603931,0.004321774259638561,-0.0025383518223134707,-0.008556159804531631,-0.013081249906191363,-0.015583956646965358,0.0,0.0,0.0,0.0,0.0,0.0,0.0,0.0,0.0,0.0,0.0,0.0,0.0,0.0,0.0,0.0,0.0,0.0,0.0,0.0,0.0,0.0,0.0,0.0,0.0,0.0,0.0,0.0,0.0,0.0,0.0,0.0,0.0,0.0,0.0,0.0,0.0,0.0,0.0,0.0,0.0,0.0,0.0,0.0,0.0,0.0,0.0,0.0,0.0,0.0,0.0,0.0,0.0,0.0,0.0,0.0,0.0,0.0,0.0,0.0,0.0,0.0,0.0,0.0,0.0,0.0,0.0,0.0,0.0,0.0,0.0,0.0,0.0,0.0,0.0,0.0,0.0,0.0,0.0,0.0,0.0,0.0,0.0,0.0,0.0,0.0,0.0,0.0,0.0,0.0,0.0,0.0,0.0,0.0,0.0,0.0,0.0,0.0,0.0,0.0,0.0,0.0,0.0,0.0,0.0,0.0,0.0,0.0,0.0,0.0,0.0,0.0,0.0,0.0,0.0,0.0,0.0,0.0,0.0,0.0,0.0,0.0,0.0,0.0,0.0,0.0,0.0,0.0,0.0,0.0,0.0,0.0,0.0,0.0,0.0,0.0,0.0,0.0,0.0,0.0,0.0,0.0,0.0,0.0,0.0,0.0,0.0,0.0,0.0,0.0,0.0,0.0,0.0,0.0,0.0,0.0,0.0,0.0,0.0,0.0,0.0,0.0,0.0,0.0,0.0,0.0,0.0,0.0,0.0,0.0,0.0,0.0,0.0,0.0,0.0,0.0,0.0,0.0,0.0,0.0,0.0,0.0,0.0,0.0,0.0,0.0,0.0,0.0,0.0,0.0,0.0,0.0,0.0,0.0,0.0,0.0,0.0,0.0,0.0,0.0,0.0,0.0,0.0,0.0,0.0,0.0,0.0,0.0,0.0,0.0,0.0,0.0,0.0,0.0,0.0,0.0,0.0,0.0,0.0,0.0,0.0,0.0,0.0,0.0,0.0,0.0,0.0,0.0,0.0,0.0,0.0,0.0,0.0,0.0,0.0,0.0,0.0,0.0,0.0
0.03441627043640453,0.02966612290142721,0.024200526359105475,0.018067787456456357,0.011393820178603931,0.004321774259638561,-0.0025383518223134707,-0.008556159804531631,-0.013081249906191363,-0.015583956646965358,-0.015764376815917504,-0.013652479153967133,-0.009652355626886589,-0.004425357285805328,0.0012575630956250152,0.0066792162154539645,0.011312761236089439,0.014812128472519025,0.017054165394003777,0.01809908283821539,0.018116413621020424,0.017367103689669323,0.016057283901367184,0.014373948306531813,0.012504264864931688,0.010561109176061293,0.008977510086832894,0.007866652874000022,0.007223421248229328,0.006909446891647984,0.006468876354907601,0.005900568442358872,0.004627430012747647,0.0021080819475125254,-0.001893164267319037,-0.007141230667482792,-0.012440787026234756,-0.01619901971824831,-0.016361313780948197,-0.01069577542628606,0.0028233255582931875,0.025500173171105932,0.057492597162591974,0.09753786341892305,0.1428984655976711,0.18959620072105557,0.2328483697620195,0.2677281014394334,0.2899340575105378,0.2964927066216283,0.28627791829466753,0.2601893030009024,0.22099452308908105,0.17290422884746845,0.12091336517587949,0.07007049771928224,0.024714990136182967,-0.01202711851364561,-0.03852881658828069,-0.0546659762698693,-0.06155192272625659,0.0,0.0,0.0,0.0,0.0,0.0,0.0,0.0,0.0,0.0,0.0,0.0,0.0,0.0,0.0,0.0,0.0,0.0,0.0,0.0,0.0,0.0,0.0,0.0,0.0,0.0,0.0,0.0,0.0,0.0,0.0,0.0,0.0,0.0,0.0,0.0,0.0,0.0,0.0,0.0,0.0,0.0,0.0,0.0,0.0,0.0,0.0,0.0,0.0,0.0,0.0,0.0,0.0,0.0,0.0,0.0,0.0,0.0,0.0,0.0,0.0,0.0,0.0,0.0,0.0,0.0,0.0,0.0,0.0,0.0,0.0,0.0,0.0,0.0,0.0,0.0,0.0,0.0,0.0,0.0,0.0,0.0,0.0,0.0,0.0,0.0,0.0,0.0,0.0,0.0,0.0,0.0,0.0,0.0,0.0,0.0,0.0,0.0,0.0,0.0,0.0,0.0,0.0,0.0,0.0,0.0,0.0,0.0,0.0,0.0,0.0,0.0,0.0,0.0,0.0,0.0,0.0,0.0,0.0,0.0,0.0,0.0,0.0,0.0,0.0,0.0,0.0,0.0,0.0,0.0,0.0,0.0,0.0,0.0,0.0,0.0,0.0,0.0,0.0,0.0,0.0,0.0,0.0,0.0,0.0,0.0,0.0,0.0,0.0,0.0,0.0,0.0,0.0,0.0,0.0,0.0,0.0,0.0,0.0,0.0,0.0,0.0,0.0,0.0,0.0,0.0,0.0,0.0,0.0,0.0,0.0,0.0,0.0,0.0,0.0,0.0,0.0,0.0,0.0,0.0,0.0,0.0,0.0,0.0,0.0,0.0,0.0,0.0,0.0,0.0,0.0,0.0,0.0,0.0,0.0,0.0,0.0,0.0,0.0,0.0,0.0,0.0,0.0,0.0,0.0,0.0,0.0,0.0,0.0,0.0,0.0,0.0,0.0,0.0,0.0,0.0,0.0,0.0,0.0,0.0,0.0,0.0,0.0,0.0,0.0,0.0,0.0,0.0,0.0,0.0,0.0,0.0,0.0,0.0,0.0,0.0,0.0,0.0,0.0
0.2601893030009024,0.22099452308908105,0.17290422884746845,0.12091336517587949,0.07007049771928224,0.024714990136182967,-0.01202711851364561,-0.03852881658828069,-0.0546659762698693,-0.06155192272625659,-0.06122406316254799,-0.05609199811629081,-0.048526163652193824,-0.04052728559202283,-0.03352725547001638,-0.02840054667768653,-0.02551661808252149,-0.024899393957936437,-0.026388594914176364,-0.02976084811174531,-0.034792000998385766,-0.04126882585665147,-0.048923159989770905,-0.05736223688405547,-0.06602337518993324,-0.07419041374991923,-0.08108289534920965,-0.08597496124874468,-0.08833587885393458,-0.08794451699737406,-0.0849510161130697,-0.07986036616035261,-0.07343084331730924,-0.06652280749633371,-0.05990651798677474,-0.054210217359544274,-0.04977586431833801,-0.04666518858182951,-0.044709736138732824,-0.04354749681735434,-0.04288888810700134,-0.0424632157423367,-0.04209715205991875,-0.04171175339494592,-0.04131674567253975,-0.040812962451285587,-0.04022120314470563,-0.039537748727996154,-0.03871377065115902,-0.03777723286107953,-0.036399829681581834,-0.0346088595504207,-0.032528117051693776,-0.030331115342050068,-0.028229234391542995,-0.02625957956528525,-0.024527023457350736,-0.023089582901124592,-0.021948460032941115,-0.02101905996431347,-0.02026776636379125,0.0,0.0,0.0,0.0,0.0,0.0,0.0,0.0,0.0,0.0,0.0,0.0,0.0,0.0,0.0,0.0,0.0,0.0,0.0,0.0,0.0,0.0,0.0,0.0,0.0,0.0,0.0,0.0,0.0,0.0,0.0,0.0,0.0,0.0,0.0,0.0,0.0,0.0,0.0,0.0,0.0,0.0,0.0,0.0,0.0,0.0,0.0,0.0,0.0,0.0,0.0,0.0,0.0,0.0,0.0,0.0,0.0,0.0,0.0,0.0,0.0,0.0,0.0,0.0,0.0,0.0,0.0,0.0,0.0,0.0,0.0,0.0,0.0,0.0,0.0,0.0,0.0,0.0,0.0,0.0,0.0,0.0,0.0,0.0,0.0,0.0,0.0,0.0,0.0,0.0,0.0,0.0,0.0,0.0,0.0,0.0,0.0,0.0,0.0,0.0,0.0,0.0,0.0,0.0,0.0,0.0,0.0,0.0,0.0,0.0,0.0,0.0,0.0,0.0,0.0,0.0,0.0,0.0,0.0,0.0,0.0,0.0,0.0,0.0,0.0,0.0,0.0,0.0,0.0,0.0,0.0,0.0,0.0,0.0,0.0,0.0,0.0,0.0,0.0,0.0,0.0,0.0,0.0,0.0,0.0,0.0,0.0,0.0,0.0,0.0,0.0,0.0,0.0,0.0,0.0,0.0,0.0,0.0,0.0,0.0,0.0,0.0,0.0,0.0,0.0,0.0,0.0,0.0,0.0,0.0,0.0,0.0,0.0,0.0,0.0,0.0,0.0,0.0,0.0,0.0,0.0,0.0,0.0,0.0,0.0,0.0,0.0,0.0,0.0,0.0,0.0,0.0,0.0,0.0,0.0,0.0,0.0,0.0,0.0,0.0,0.0,0.0,0.0,0.0,0.0,0.0,0.0,0.0,0.0,0.0,0.0,0.0,0.0,0.0,0.0,0.0,0.0,0.0,0.0,0.0,0.0,0.0,0.0,0.0,0.0,0.0,0.0,0.0,0.0,0.0,0.0,0.0,0.0,0.0,0.0,0.0,0.0,0.0,0.0
-0.0346088595504207,-0.032528117051693776,-0.030331115342050068,-0.028229234391542995,-0.02625957956528525,-0.024527023457350736,-0.023089582901124592,-0.021948460032941115,-0.02101905996431347,-0.02026776636379125,-0.0195872919112728,-0.018882829981294313,-0.01810183612674843,-0.017222529502609454,-0.01633916105339334,-0.015521797189053211,-0.01482399965873579,-0.01425521222055575,-0.013748181518407926,-0.013229539446902003,-0.01256943619960237,-0.011655077016188647,-0.010444395321307908,-0.008995282845248307,-0.0075539552729469136,-0.006428351929447189,-0.005994194127216345,-0.006633578422060068,-0.008645768568745842,-0.012240866600558231,-0.01733134232013291,-0.02358688419166802,-0.030481175009415495,-0.03745336527486927,-0.04382441462014855,-0.04898855315123697,-0.05253280847853873,-0.05432877159677092,-0.05472224413996675,-0.054025869629153685,-0.05270989464972003,-0.051223494489622205,-0.049900259473498965,-0.048975947354977185,-0.048367494367321774,-0.04781982157684473,-0.04697325504402581,-0.04547174735022701,-0.04305262466755148,-0.03965339659702177,-0.03535419397563491,-0.03038483535465585,-0.02507463180536522,-0.01976788898345074,-0.014842219825133056,-0.010574547002145033,-0.007153131778507932,-0.0046775162605034275,-0.0031334283344506405,-0.0025131797147796117,-0.002710331765112863,0.0,0.0,0.0,0.0,0.0,0.0,0.0,0.0,0.0,0.0,0.0,0.0,0.0,0.0,0.0,0.0,0.0,0.0,0.0,0.0,0.0,0.0,0.0,0.0,0.0,0.0,0.0,0.0,0.0,0.0,0.0,0.0,0.0,0.0,0.0,0.0,0.0,0.0,0.0,0.0,0.0,0.0,0.0,0.0,0.0,0.0,0.0,0.0,0.0,0.0,0.0,0.0,0.0,0.0,0.0,0.0,0.0,0.0,0.0,0.0,0.0,0.0,0.0,0.0,0.0,0.0,0.0,0.0,0.0,0.0,0.0,0.0,0.0,0.0,0.0,0.0,0.0,0.0,0.0,0.0,0.0,0.0,0.0,0.0,0.0,0.0,0.0,0.0,0.0,0.0,0.0,0.0,0.0,0.0,0.0,0.0,0.0,0.0,0.0,0.0,0.0,0.0,0.0,0.0,0.0,0.0,0.0,0.0,0.0,0.0,0.0,0.0,0.0,0.0,0.0,0.0,0.0,0.0,0.0,0.0,0.0,0.0,0.0,0.0,0.0,0.0,0.0,0.0,0.0,0.0,0.0,0.0,0.0,0.0,0.0,0.0,0.0,0.0,0.0,0.0,0.0,0.0,0.0,0.0,0.0,0.0,0.0,0.0,0.0,0.0,0.0,0.0,0.0,0.0,0.0,0.0,0.0,0.0,0.0,0.0,0.0,0.0,0.0,0.0,0.0,0.0,0.0,0.0,0.0,0.0,0.0,0.0,0.0,0.0,0.0,0.0,0.0,0.0,0.0,0.0,0.0,0.0,0.0,0.0,0.0,0.0,0.0,0.0,0.0,0.0,0.0,0.0,0.0,0.0,0.0,0.0,0.0,0.0,0.0,0.0,0.0,0.0,0.0,0.0,0.0,0.0,0.0,0.0,0.0,0.0,0.0,0.0,0.0,0.0,0.0,0.0,0.0,0.0,0.0,0.0,0.0,0.0,0.0,0.0,0.0,0.0,0.0,0.0,0.0,0.0,0.0,0.0,0.0,0.0,0.0,0.0,0.0,0.0,0.0
-0.03038483535465585,-0.02507463180536522,-0.01976788898345074,-0.014842219825133056,-0.010574547002145033,-0.007153131778507932,-0.0046775162605034275,-0.0031334283344506405,-0.0025131797147796117,-0.002710331765112863,-0.0035493507252426374,-0.004781159247108004,-0.006070969298587951,-0.007071704633673161,-0.007405384770307968,-0.00674503202274948,-0.0048848022337125785,-0.0018024102758990735,0.0023182072036374195,0.007120016694659043,0.012138871708064955,0.016922715005995268,0.021169434488896646,0.024884782718380866,0.028469960402889537,0.03272248846475693,0.03873023224570313,0.04764862467475745,0.06045175243122945,0.0776146796254682,0.0988689469611314,0.1230764211643165,0.14827488551415266,0.17189141239207004,0.19116968358415826,0.20361130417855572,0.20742261008292986,0.20186758393012216,0.18735827874524547,0.1654978783985992,0.1387566715285718,0.11003506214991458,0.08217445554869117,0.05746833507108206,0.0374277801399001,0.022605795636021005,0.012647514216899315,0.00650485013808945,0.0027472980405812606,-2.6663775346651424e-05,-0.0029200601688392424,-0.006550393229277699,-0.011017201226848279,-0.01591696739872003,-0.02052682069800248,-0.02403167917183243,-0.02574830067545471,-0.025338940018046607,-0.02276848363121322,-0.01838097410950462,-0.0127869359077798,0.0,0.0,0.0,0.0,0.0,0.0,0.0,0.0,0.0,0.0,0.0,0.0,0.0,0.0,0.0,0.0,0.0,0.0,0.0,0.0,0.0,0.0,0.0,0.0,0.0,0.0,0.0,0.0,0.0,0.0,0.0,0.0,0.0,0.0,0.0,0.0,0.0,0.0,0.0,0.0,0.0,0.0,0.0,0.0,0.0,0.0,0.0,0.0,0.0,0.0,0.0,0.0,0.0,0.0,0.0,0.0,0.0,0.0,0.0,0.0,0.0,0.0,0.0,0.0,0.0,0.0,0.0,0.0,0.0,0.0,0.0,0.0,0.0,0.0,0.0,0.0,0.0,0.0,0.0,0.0,0.0,0.0,0.0,0.0,0.0,0.0,0.0,0.0,0.0,0.0,0.0,0.0,0.0,0.0,0.0,0.0,0.0,0.0,0.0,0.0,0.0,0.0,0.0,0.0,0.0,0.0,0.0,0.0,0.0,0.0,0.0,0.0,0.0,0.0,0.0,0.0,0.0,0.0,0.0,0.0,0.0,0.0,0.0,0.0,0.0,0.0,0.0,0.0,0.0,0.0,0.0,0.0,0.0,0.0,0.0,0.0,0.0,0.0,0.0,0.0,0.0,0.0,0.0,0.0,0.0,0.0,0.0,0.0,0.0,0.0,0.0,0.0,0.0,0.0,0.0,0.0,0.0,0.0,0.0,0.0,0.0,0.0,0.0,0.0,0.0,0.0,0.0,0.0,0.0,0.0,0.0,0.0,0.0,0.0,0.0,0.0,0.0,0.0,0.0,0.0,0.0,0.0,0.0,0.0,0.0,0.0,0.0,0.0,0.0,0.0,0.0,0.0,0.0,0.0,0.0,0.0,0.0,0.0,0.0,0.0,0.0,0.0,0.0,0.0,0.0,0.0,0.0,0.0,0.0,0.0,0.0,0.0,0.0,0.0,0.0,0.0,0.0,0.0,0.0,0.0,0.0,0.0,0.0,0.0,0.0,0.0,0.0,0.0,0.0,0.0,0.0,0.0,0.0,0.0,0.0,0.0,0.0,0.0,0.0
-0.006550393229277699,-0.011017201226848279,-0.01591696739872003,-0.02052682069800248,-0.02403167917183243,-0.02574830067545471,-0.025338940018046607,-0.02276848363121322,-0.01838097410950462,-0.0127869359077798,-0.006724015471838884,-0.0009479202843747476,0.004020113664857522,0.00788118072057742,0.010589098713295516,0.012300269731776944,0.013245898425338477,0.013762265203834199,0.01412671680545812,0.014528923816781185,0.01505355861970462,0.015652837724550714,0.016302266362637215,0.016922973782683506,0.017442092443551452,0.0178068475076323,0.017949757315181433,0.017911689290753003,0.017699936815439916,0.017336000964299714,0.016862666506846462,0.016034564174785108,0.01530766609698457,0.014923000231391124,0.015093746722519742,0.01591848550606063,0.016721417142491563,0.017901570344869857,0.019338386963074453,0.02090391436004059,0.022493990633196806,0.023757274264890344,0.02496220560851656,0.02619065325852364,0.027534466639615077,0.029069495760332978,0.030877364860269645,0.03293874595331211,0.03520795678934762,0.03761913318428778,0.04010468856999097,0.04263015598593793,0.045103332883498,0.0474313655780675,0.04949198932223979,0.05113988137964896,0.05225104945174237,0.05270098111566988,0.05248760872510198,0.05173475851262188,0.05068959476671283,0.0,0.0,0.0,0.0,0.0,0.0,0.0,0.0,0.0,0.0,0.0,0.0,0.0,0.0,0.0,0.0,0.0,0.0,0.0,0.0,0.0,0.0,0.0,0.0,0.0,0.0,0.0,0.0,0.0,0.0,0.0,0.0,0.0,0.0,0.0,0.0,0.0,0.0,0.0,0.0,0.0,0.0,0.0,0.0,0.0,0.0,0.0,0.0,0.0,0.0,0.0,0.0,0.0,0.0,0.0,0.0,0.0,0.0,0.0,0.0,0.0,0.0,0.0,0.0,0.0,0.0,0.0,0.0,0.0,0.0,0.0,0.0,0.0,0.0,0.0,0.0,0.0,0.0,0.0,0.0,0.0,0.0,0.0,0.0,0.0,0.0,0.0,0.0,0.0,0.0,0.0,0.0,0.0,0.0,0.0,0.0,0.0,0.0,0.0,0.0,0.0,0.0,0.0,0.0,0.0,0.0,0.0,0.0,0.0,0.0,0.0,0.0,0.0,0.0,0.0,0.0,0.0,0.0,0.0,0.0,0.0,0.0,0.0,0.0,0.0,0.0,0.0,0.0,0.0,0.0,0.0,0.0,0.0,0.0,0.0,0.0,0.0,0.0,0.0,0.0,0.0,0.0,0.0,0.0,0.0,0.0,0.0,0.0,0.0,0.0,0.0,0.0,0.0,0.0,0.0,0.0,0.0,0.0,0.0,0.0,0.0,0.0,0.0,0.0,0.0,0.0,0.0,0.0,0.0,0.0,0.0,0.0,0.0,0.0,0.0,0.0,0.0,0.0,0.0,0.0,0.0,0.0,0.0,0.0,0.0,0.0,0.0,0.0,0.0,0.0,0.0,0.0,0.0,0.0,0.0,0.0,0.0,0.0,0.0,0.0,0.0,0.0,0.0,0.0,0.0,0.0,0.0,0.0,0.0,0.0,0.0,0.0,0.0,0.0,0.0,0.0,0.0,0.0,0.0,0.0,0.0,0.0,0.0,0.0,0.0,0.0,0.0,0.0,0.0,0.0,0.0,0.0,0.0,0.0,0.0,0.0,0.0,0.0,0.0
0.04263015598593793,0.045103332883498,0.0474313655780675,0.04949198932223979,0.05113988137964896,0.05225104945174237,0.05270098111566988,0.05248760872510198,0.05173475851262188,0.05068959476671283,0.04969218042441118,0.049052511527551745,0.04898175857170315,0.04947503332001558,0.05023930815377668,0.05069537847382923,0.05004625361234354,0.0474612074242781,0.04234952834165173,0.03467225856295772,0.025225537618175486,0.015823634050999992,0.009264590443775826,0.00909242656668715,0.01910520897213874,0.042658490168263015,0.08192343089458057,0.13713058125413224,0.20610832797267142,0.28418108179355994,0.3645125213479091,0.4389399971808784,0.4990620877090313,0.5375344048532129,0.5492569546149811,0.5322248295412852,0.4879292963069904,0.4210962725354294,0.33895458401219725,0.2501010040317459,0.16318941499079465,0.08573541739030535,0.02312885033115208,-0.021850533838819512,-0.049054946551489384,-0.06056647966593908,-0.05996379621135753,-0.05153324364181043,-0.03944251099110053,-0.027111005927236958,-0.016862524575333982,-0.009771001019752954,-0.00592282793033654,-0.004701863973378356,-0.0051670653029845335,-0.006426653131476929,-0.007753445809908481,-0.008828183989608437,-0.009649834182047852,-0.010403281454377494,-0.011322996262109235,0.0,0.0,0.0,0.0,0.0,0.0,0.0,0.0,0.0,0.0,0.0,0.0,0.0,0.0,0.0,0.0,0.0,0.0,0.0,0.0,0.0,0.0,0.0,0.0,0.0,0.0,0.0,0.0,0.0,0.0,0.0,0.0,0.0,0.0,0.0,0.0,0.0,0.0,0.0,0.0,0.0,0.0,0.0,0.0,0.0,0.0,0.0,0.0,0.0,0.0,0.0,0.0,0.0,0.0,0.0,0.0,0.0,0.0,0.0,0.0,0.0,0.0,0.0,0.0,0.0,0.0,0.0,0.0,0.0,0.0,0.0,0.0,0.0,0.0,0.0,0.0,0.0,0.0,0.0,0.0,0.0,0.0,0.0,0.0,0.0,0.0,0.0,0.0,0.0,0.0,0.0,0.0,0.0,0.0,0.0,0.0,0.0,0.0,0.0,0.0,0.0,0.0,0.0,0.0,0.0,0.0,0.0,0.0,0.0,0.0,0.0,0.0,0.0,0.0,0.0,0.0,0.0,0.0,0.0,0.0,0.0,0.0,0.0,0.0,0.0,0.0,0.0,0.0,0.0,0.0,0.0,0.0,0.0,0.0,0.0,0.0,0.0,0.0,0.0,0.0,0.0,0.0,0.0,0.0,0.0,0.0,0.0,0.0,0.0,0.0,0.0,0.0,0.0,0.0,0.0,0.0,0.0,0.0,0.0,0.0,0.0,0.0,0.0,0.0,0.0,0.0,0.0,0.0,0.0,0.0,0.0,0.0,0.0,0.0,0.0,0.0,0.0,0.0,0.0,0.0,0.0,0.0,0.0,0.0,0.0,0.0,0.0,0.0,0.0,0.0,0.0,0.0,0.0,0.0,0.0,0.0,0.0,0.0,0.0,0.0,0.0,0.0,0.0,0.0,0.0,0.0,0.0,0.0,0.0,0.0,0.0,0.0,0.0,0.0,0.0,0.0,0.0,0.0,0.0,0.0,0.0,0.0,0.0,0.0,0.0,0.0,0.0,0.0,0.0,0.0,0.0,0.0,0.0,0.0,0.0,0.0,0.0,0.0,0.0
-0.009771001019752954,-0.00592282793033654,-0.004701863973378356,-0.0051670653029845335,-0.006426653131476929,-0.007753445809908481,-0.008828183989608437,-0.009649834182047852,-0.010403281454377494,-0.011322996262109235,-0.01245530476231948,-0.013723931510127314,-0.014892554927625685,-0.015639497605770457,-0.0156886902703419,-0.014829337799603493,-0.013096623892191664,-0.010722771228516411,-0.008069539742107395,-0.0055357161209632095,-0.0034114793943225154,-0.001877295593834809,-0.0009493041157448808,-0.0004995818784443365,-0.0003120283392261924,-0.00015368451084953665,0.0001377432430042053,0.0006293164498374919,0.0012917607501496788,0.001885778456594574,0.002539934319281004,0.0030708110104733554,0.003295424328945595,0.003083103378743695,0.0020990323026220874,0.0008782418132866003,-0.0006019920491722866,-0.002377657940573072,-0.004426578775278667,-0.006772097995533467,-0.008929609014811263,-0.010644120028019555,-0.011695986809172342,-0.011936260929301026,-0.011329018201667526,-0.009927441245202938,-0.007839295710890301,-0.005239434390993183,-0.0023588298962755115,0.00025799096238298254,0.0025873722174582755,0.004551034677408996,0.006114551161948804,0.0072186011367500035,0.0071951464241401565,0.006358717762481029,0.00484480207590615,0.0029034965511739765,0.0008433605022719404,-0.0012795933741323179,-0.0030734999016458183,0.0,0.0,0.0,0.0,0.0,0.0,0.0,0.0,0.0,0.0,0.0,0.0,0.0,0.0,0.0,0.0,0.0,0.0,0.0,0.0,0.0,0.0,0.0,0.0,0.0,0.0,0.0,0.0,0.0,0.0,0.0,0.0,0.0,0.0,0.0,0.0,0.0,0.0,0.0,0.0,0.0,0.0,0.0,0.0,0.0,0.0,0.0,0.0,0.0,0.0,0.0,0.0,0.0,0.0,0.0,0.0,0.0,0.0,0.0,0.0,0.0,0.0,0.0,0.0,0.0,0.0,0.0,0.0,0.0,0.0,0.0,0.0,0.0,0.0,0.0,0.0,0.0,0.0,0.0,0.0,0.0,0.0,0.0,0.0,0.0,0.0,0.0,0.0,0.0,0.0,0.0,0.0,0.0,0.0,0.0,0.0,0.0,0.0,0.0,0.0,0.0,0.0,0.0,0.0,0.0,0.0,0.0,0.0,0.0,0.0,0.0,0.0,0.0,0.0,0.0,0.0,0.0,0.0,0.0,0.0,0.0,0.0,0.0,0.0,0.0,0.0,0.0,0.0,0.0,0.0,0.0,0.0,0.0,0.0,0.0,0.0,0.0,0.0,0.0,0.0,0.0,0.0,0.0,0.0,0.0,0.0,0.0,0.0,0.0,0.0,0.0,0.0,0.0,0.0,0.0,0.0,0.0,0.0,0.0,0.0,0.0,0.0,0.0,0.0,0.0,0.0,0.0,0.0,0.0,0.0,0.0,0.0,0.0,0.0,0.0,0.0,0.0,0.0,0.0,0.0,0.0,0.0,0.0,0.0,0.0,0.0,0.0,0.0,0.0,0.0,0.0,0.0,0.0,0.0,0.0,0.0,0.0,0.0,0.0,0.0,0.0,0.0,0.0,0.0,0.0,0.0,0.0,0.0,0.0,0.0,0.0,0.0,0.0,0.0,0.0,0.0,0.0,0.0,0.0,0.0,0.0,0.0,0.0,0.0,0.0,0.0,0.0,0.0,0.0,0.0,0.0,0.0,0.0,0.0,0.0,0.0,0.0,0.0,0.0
-0.009466289751518305,-0.01126131043999849,-0.012860063179464962,-0.013883339033690994,-0.014075552192699738,-0.013400699370830493,-0.012115488179589691,-0.01058091949088562,-0.00923702256069932,-0.008423186772464722,-0.008243439340824445,-0.008564159476010826,-0.008840316919192182,-0.008396849307409974,-0.006599322441676829,-0.0030861793108184,0.0019633072249523363,0.00804124671265044,0.014214322390060128,0.019441601035635345,0.022953986815575603,0.024575424035361275,0.025332952639069095,0.027402073517098047,0.03401363468361448,0.0489941529419696,0.07594327421416908,0.11763495554652881,0.17496782400708566,0.24636386956508424,0.32750478848634607,0.41142948056320544,0.4897131246131037,0.5533261541595283,0.5940913793514072,0.6060154240307226,0.5861366026804963,0.5356287822472003,0.4592919039605485,0.36496292934450864,0.26232173994379365,0.16123942199361121,0.07091869337450027,-0.0017353520176281514,-0.05276135967383017,-0.08137194414313521,-0.08985876165022115,-0.0822588750372,-0.06383166741378503,-0.03995134374736077,-0.015273281107667161,0.006616180329258232,0.02402142337948556,0.03659520889894734,0.04508438553977434,0.0508253819278009,0.055039060846826235,0.05903800500254651,0.06357780663687235,0.06891004337240636,0.074860703995096,0.0,0.0,0.0,0.0,0.0,0.0,0.0,0.0,0.0,0.0,0.0,0.0,0.0,0.0,0.0,0.0,0.0,0.0,0.0,0.0,0.0,0.0,0.0,0.0,0.0,0.0,0.0,0.0,0.0,0.0,0.0,0.0,0.0,0.0,0.0,0.0,0.0,0.0,0.0,0.0,0.0,0.0,0.0,0.0,0.0,0.0,0.0,0.0,0.0,0.0,0.0,0.0,0.0,0.0,0.0,0.0,0.0,0.0,0.0,0.0,0.0,0.0,0.0,0.0,0.0,0.0,0.0,0.0,0.0,0.0,0.0,0.0,0.0,0.0,0.0,0.0,0.0,0.0,0.0,0.0,0.0,0.0,0.0,0.0,0.0,0.0,0.0,0.0,0.0,0.0,0.0,0.0,0.0,0.0,0.0,0.0,0.0,0.0,0.0,0.0,0.0,0.0,0.0,0.0,0.0,0.0,0.0,0.0,0.0,0.0,0.0,0.0,0.0,0.0,0.0,0.0,0.0,0.0,0.0,0.0,0.0,0.0,0.0,0.0,0.0,0.0,0.0,0.0,0.0,0.0,0.0,0.0,0.0,0.0,0.0,0.0,0.0,0.0,0.0,0.0,0.0,0.0,0.0,0.0,0.0,0.0,0.0,0.0,0.0,0.0,0.0,0.0,0.0,0.0,0.0,0.0,0.0,0.0,0.0,0.0,0.0,0.0,0.0,0.0,0.0,0.0,0.0,0.0,0.0,0.0,0.0,0.0,0.0,0.0,0.0,0.0,0.0,0.0,0.0,0.0,0.0,0.0,0.0,0.0,0.0,0.0,0.0,0.0,0.0,0.0,0.0,0.0,0.0,0.0,0.0,0.0,0.0,0.0,0.0,0.0,0.0,0.0,0.0,0.0,0.0,0.0,0.0,0.0,0.0,0.0,0.0,0.0,0.0,0.0,0.0,0.0,0.0,0.0,0.0,0.0,0.0,0.0,0.0,0.0,0.0,0.0,0.0,0.0,0.0,0.0,0.0,0.0,0.0,0.0,0.0,0.0,0.0,0.0,0.0
0.006616180329258232,0.02402142337948556,0.03659520889894734,0.04508438553977434,0.0508253819278009,0.055039060846826235,0.05903800500254651,0.06357780663687235,0.06891004337240636,0.074860703995096,0.08075854237032931,0.08631208750481309,0.0912367576891956,0.09542459994476406,0.0988960260623911,0.10144322083081307,0.10334125704008551,0.10471434665322155,0.10567332274612694,0.10633182807449264,0.10654332129783135,0.10684598368889743,0.10775574906177779,0.10987741193594257,0.11376763008659417,0.11944576704357361,0.12729662601514297,0.13718542640626916,0.14867049510638183,0.16104882454151614,0.17296295322050267,0.1841457125555619,0.19397891148682614,0.2020775241852415,0.2083300189964381,0.21222243732903837,0.21495910172181992,0.21703508439580604,0.21890189574492966,0.22090870691367384,0.2227741734460889,0.22507510291003385,0.22778258905957727,0.23069806719003602,0.23348739483090963,0.23544451012262116,0.236439502696926,0.23643746334207344,0.23562721178804347,0.23436354235964246,0.2327291493751318,0.23147822470588172,0.23118851018343303,0.23234588234534267,0.23523968988837532,0.2394946191641268,0.2452621080703195,0.2522837376159546,0.26018425410256374,0.26850711637824787,0.27634339456065155,0.0,0.0,0.0,0.0,0.0,0.0,0.0,0.0,0.0,0.0,0.0,0.0,0.0,0.0,0.0,0.0,0.0,0.0,0.0,0.0,0.0,0.0,0.0,0.0,0.0,0.0,0.0,0.0,0.0,0.0,0.0,0.0,0.0,0.0,0.0,0.0,0.0,0.0,0.0,0.0,0.0,0.0,0.0,0.0,0.0,0.0,0.0,0.0,0.0,0.0,0.0,0.0,0.0,0.0,0.0,0.0,0.0,0.0,0.0,0.0,0.0,0.0,0.0,0.0,0.0,0.0,0.0,0.0,0.0,0.0,0.0,0.0,0.0,0.0,0.0,0.0,0.0,0.0,0.0,0.0,0.0,0.0,0.0,0.0,0.0,0.0,0.0,0.0,0.0,0.0,0.0,0.0,0.0,0.0,0.0,0.0,0.0,0.0,0.0,0.0,0.0,0.0,0.0,0.0,0.0,0.0,0.0,0.0,0.0,0.0,0.0,0.0,0.0,0.0,0.0,0.0,0.0,0.0,0.0,0.0,0.0,0.0,0.0,0.0,0.0,0.0,0.0,0.0,0.0,0.0,0.0,0.0,0.0,0.0,0.0,0.0,0.0,0.0,0.0,0.0,0.0,0.0,0.0,0.0,0.0,0.0,0.0,0.0,0.0,0.0,0.0,0.0,0.0,0.0,0.0,0.0,0.0,0.0,0.0,0.0,0.0,0.0,0.0,0.0,0.0,0.0,0.0,0.0,0.0,0.0,0.0,0.0,0.0,0.0,0.0,0.0,0.0,0.0,0.0,0.0,0.0,0.0,0.0,0.0,0.0,0.0,0.0,0.0,0.0,0.0,0.0,0.0,0.0,0.0,0.0,0.0,0.0,0.0,0.0,0.0,0.0,0.0,0.0,0.0,0.0,0.0,0.0,0.0,0.0,0.0,0.0,0.0,0.0,0.0,0.0,0.0,0.0,0.0,0.0,0.0,0.0,0.0,0.0,0.0,0.0,0.0,0.0,0.0,0.0,0.0,0.0,0.0,0.0,0.0,0.0,0.0,0.0,0.0,0.0
0.3110013077125133,0.3156661069078054,0.32067422329010015,0.32607794829417924,0.33129640902496527,0.3364967056825135,0.34150411147393417,0.3461669074435885,0.350381353720238,0.35364644175440496,0.35644081221240337,0.35901528776364333,0.3616425114378429,0.36451906861904204,0.3669618060651714,0.3695900452443014,0.3724597497021141,0.3755383865169402,0.37865678351784615,0.3804939522881794,0.38166589496493014,0.3822482918289594,0.3824637408757209,0.38260412443262815,0.3822068186111981,0.3821792925597374,0.3828120869542575,0.38426803247842706,0.3865514653474101,0.3890788596802119,0.3921062109598295,0.39547654659838716,0.39905315419850523,0.402733564991659,0.40597165825598847,0.40921553231845514,0.412491802637186,0.41576678941040984,0.41891566463590796,0.4212340256340299,0.4230356359140673,0.4242779959985512,0.4250331965937723,0.4254976338803405,0.42542641287206695,0.4257462106727433,0.42686755979791013,0.42901164110516526,0.43207960312477306,0.43501124164788363,0.4376420337228225,0.43914661097904756,0.43880441226121797,0.43631512668255207,0.4315369180883545,0.42656360384237363,0.42402177898926247,0.427396874644663,0.4405506502403309,0.4664239061991632,0.5080706241179759,0.0,0.0,0.0,0.0,0.0,0.0,0.0,0.0,0.0,0.0,0.0,0.0,0.0,0.0,0.0,0.0,0.0,0.0,0.0,0.0,0.0,0.0,0.0,0.0,0.0,0.0,0.0,0.0,0.0,0.0,0.0,0.0,0.0,0.0,0.0,0.0,0.0,0.0,0.0,0.0,0.0,0.0,0.0,0.0,0.0,0.0,0.0,0.0,0.0,0.0,0.0,0.0,0.0,0.0,0.0,0.0,0.0,0.0,0.0,0.0,0.0,0.0,0.0,0.0,0.0,0.0,0.0,0.0,0.0,0.0,0.0,0.0,0.0,0.0,0.0,0.0,0.0,0.0,0.0,0.0,0.0,0.0,0.0,0.0,0.0,0.0,0.0,0.0,0.0,0.0,0.0,0.0,0.0,0.0,0.0,0.0,0.0,0.0,0.0,0.0,0.0,0.0,0.0,0.0,0.0,0.0,0.0,0.0,0.0,0.0,0.0,0.0,0.0,0.0,0.0,0.0,0.0,0.0,0.0,0.0,0.0,0.0,0.0,0.0,0.0,0.0,0.0,0.0,0.0,0.0,0.0,0.0,0.0,0.0,0.0,0.0,0.0,0.0,0.0,0.0,0.0,0.0,0.0,0.0,0.0,0.0,0.0,0.0,0.0,0.0,0.0,0.0,0.0,0.0,0.0,0.0,0.0,0.0,0.0,0.0,0.0,0.0,0.0,0.0,0.0,0.0,0.0,0.0,0.0,0.0,0.0,0.0,0.0,0.0,0.0,0.0,0.0,0.0,0.0,0.0,0.0,0.0,0.0,0.0,0.0,0.0,0.0,0.0,0.0,0.0,0.0,0.0,0.0,0.0,0.0,0.0,0.0,0.0,0.0,0.0,0.0,0.0,0.0,0.0,0.0,0.0,0.0,0.0,0.0,0.0,0.0,0.0,0.0,0.0,0.0,0.0,0.0,0.0,0.0,0.0,0.0,0.0,0.0,0.0,0.0,0.0,0.0,0.0,0.0,0.0,0.0,0.0,0.0,0.0,0.0,0.0,0.0,0.0,0.0
0.43914661097904756,0.43880441226121797,0.43631512668255207,0.4315369180883545,0.42656360384237363,0.42402177898926247,0.427396874644663,0.4405506502403309,0.4664239061991632,0.5080706241179759,0.5660612402666334,0.6384535010769342,0.7206005834108836,0.8048619924007765,0.8832876766387477,0.9469712774828433,0.9879794053332908,1.0006505165814363,0.9819749943315887,0.9339507036702765,0.8615446726093495,0.772493131457627,0.676086758151349,0.5811364713807845,0.4965757578531239,0.42848226395834266,0.3800533366331779,0.3515229997212618,0.3399352782058163,0.3419316183041537,0.3527295299173338,0.36763458255420395,0.38277041908265863,0.39488062909037597,0.4035103343254197,0.4088301797738657,0.4118660663139547,0.41401783844405554,0.41594605202855106,0.41931925390031294,0.4245783641731219,0.431551620278554,0.43958237926790616,0.44709525715963094,0.45391254932341757,0.4593921078788377,0.4631639642001662,0.4651469200917568,0.46484923601196193,0.4633438122682596,0.4611109548340165,0.4585815735282735,0.45608318435951645,0.4531733918343142,0.45072728100521353,0.4488802773772546,0.447666903673491,0.447019448627276,0.44611950085371754,0.4455087069926488,0.4450388057530194,0.0,0.0,0.0,0.0,0.0,0.0,0.0,0.0,0.0,0.0,0.0,0.0,0.0,0.0,0.0,0.0,0.0,0.0,0.0,0.0,0.0,0.0,0.0,0.0,0.0,0.0,0.0,0.0,0.0,0.0,0.0,0.0,0.0,0.0,0.0,0.0,0.0,0.0,0.0,0.0,0.0,0.0,0.0,0.0,0.0,0.0,0.0,0.0,0.0,0.0,0.0,0.0,0.0,0.0,0.0,0.0,0.0,0.0,0.0,0.0,0.0,0.0,0.0,0.0,0.0,0.0,0.0,0.0,0.0,0.0,0.0,0.0,0.0,0.0,0.0,0.0,0.0,0.0,0.0,0.0,0.0,0.0,0.0,0.0,0.0,0.0,0.0,0.0,0.0,0.0,0.0,0.0,0.0,0.0,0.0,0.0,0.0,0.0,0.0,0.0,0.0,0.0,0.0,0.0,0.0,0.0,0.0,0.0,0.0,0.0,0.0,0.0,0.0,0.0,0.0,0.0,0.0,0.0,0.0,0.0,0.0,0.0,0.0,0.0,0.0,0.0,0.0,0.0,0.0,0.0,0.0,0.0,0.0,0.0,0.0,0.0,0.0,0.0,0.0,0.0,0.0,0.0,0.0,0.0,0.0,0.0,0.0,0.0,0.0,0.0,0.0,0.0,0.0,0.0,0.0,0.0,0.0,0.0,0.0,0.0,0.0,0.0,0.0,0.0,0.0,0.0,0.0,0.0,0.0,0.0,0.0,0.0,0.0,0.0,0.0,0.0,0.0,0.0,0.0,0.0,0.0,0.0,0.0,0.0,0.0,0.0,0.0,0.0,0.0,0.0,0.0,0.0,0.0,0.0,0.0,0.0,0.0,0.0,0.0,0.0,0.0,0.0,0.0,0.0,0.0,0.0,0.0,0.0,0.0,0.0,0.0,0.0,0.0,0.0,0.0,0.0,0.0,0.0,0.0,0.0,0.0,0.0,0.0,0.0,0.0,0.0,0.0,0.0,0.0,0.0,0.0,0.0,0.0,0.0,0.0,0.0,0.0,0.0,0.0
0.45361923644330604,0.44699859239921436,0.4401228112940839,0.4328387567913099,0.4262950799573624,0.4207838334548661,0.41634915333508166,0.4128201277734678,0.40952326063428796,0.40663313762603337,0.40382558542085534,0.40085430253823545,0.397624626422963,0.3938184200122157,0.3902058743070675,0.3870263325279892,0.3844273099680274,0.38242912507245813,0.38049818248152956,0.37902858997225314,0.377769598324424,0.3764617697081372,0.3749428970762864,0.3728063516439562,0.37079779739333596,0.3691524110999477,0.36803512030552826,0.3674566690801147,0.36682142829660896,0.3662619394905707,0.3651552662541533,0.3628424323714036,0.35892632957648757,0.3532310426344757,0.3472990561803483,0.34301599487337825,0.3430208453488749,0.3503959900728605,0.3678027461429794,0.39794032439250276,0.44144980595651356,0.49687133238030173,0.5604653774258679,0.6261380349332462,0.6871850439665493,0.7359335231515403,0.7654105434100524,0.7705347647788752,0.7487489097304255,0.7015115883614835,0.6328888396001773,0.5494119494568356,0.4591035007352996,0.3700406820553837,0.2900954119583723,0.22478725810276048,0.177153402915739,0.147672236691724,0.13438128854047565,0.1343053645202038,0.14316269248838762,0.0,0.0,0.0,0.0,0.0,0.0,0.0,0.0,0.0,0.0,0.0,0.0,0.0,0.0,0.0,0.0,0.0,0.0,0.0,0.0,0.0,0.0,0.0,0.0,0.0,0.0,0.0,0.0,0.0,0.0,0.0,0.0,0.0,0.0,0.0,0.0,0.0,0.0,0.0,0.0,0.0,0.0,0.0,0.0,0.0,0.0,0.0,0.0,0.0,0.0,0.0,0.0,0.0,0.0,0.0,0.0,0.0,0.0,0.0,0.0,0.0,0.0,0.0,0.0,0.0,0.0,0.0,0.0,0.0,0.0,0.0,0.0,0.0,0.0,0.0,0.0,0.0,0.0,0.0,0.0,0.0,0.0,0.0,0.0,0.0,0.0,0.0,0.0,0.0,0.0,0.0,0.0,0.0,0.0,0.0,0.0,0.0,0.0,0.0,0.0,0.0,0.0,0.0,0.0,0.0,0.0,0.0,0.0,0.0,0.0,0.0,0.0,0.0,0.0,0.0,0.0,0.0,0.0,0.0,0.0,0.0,0.0,0.0,0.0,0.0,0.0,0.0,0.0,0.0,0.0,0.0,0.0,0.0,0.0,0.0,0.0,0.0,0.0,0.0,0.0,0.0,0.0,0.0,0.0,0.0,0.0,0.0,0.0,0.0,0.0,0.0,0.0,0.0,0.0,0.0,0.0,0.0,0.0,0.0,0.0,0.0,0.0,0.0,0.0,0.0,0.0,0.0,0.0,0.0,0.0,0.0,0.0,0.0,0.0,0.0,0.0,0.0,0.0,0.0,0.0,0.0,0.0,0.0,0.0,0.0,0.0,0.0,0.0,0.0,0.0,0.0,0.0,0.0,0.0,0.0,0.0,0.0,0.0,0.0,0.0,0.0,0.0,0.0,0.0,0.0,0.0,0.0,0.0,0.0,0.0,0.0,0.0,0.0,0.0,0.0,0.0,0.0,0.0,0.0,0.0,0.0,0.0,0.0,0.0,0.0,0.0,0.0,0.0,0.0,0.0,0.0,0.0,0.0,0.0,0.0,0.0,0.0,0.0,0.0
0.5494119494568356,0.4591035007352996,0.3700406820553837,0.2900954119583723,0.22478725810276048,0.177153402915739,0.147672236691724,0.13438128854047565,0.1343053645202038,0.14316269248838762,0.15655028061046586,0.17064097237348402,0.1824523299207136,0.19077616594947605,0.19510340976560817,0.19576032041555458,0.19360970805524402,0.18955379325682623,0.18493933644485808,0.18042624121080686,0.17628510637764744,0.1724793913917461,0.16866472800438692,0.16489432928975725,0.16087960762117234,0.15639619406044197,0.15134907472824818,0.14568486499632688,0.13980791684447383,0.1337835087899631,0.12762409076211415,0.12133525985512089,0.11489837934584213,0.10865129578346557,0.10262802034407388,0.09684290421513966,0.09132144498199361,0.086075586243583,0.08134631493016038,0.07701005054562553,0.0728594180757033,0.06868643794319705,0.06411792723033552,0.0596162261202869,0.05513526250137072,0.050624185890607146,0.04605143090440049,0.04095981908645353,0.0361190676893691,0.03141245620854924,0.026647922596543173,0.021679738121721897,0.01625806461592928,0.01095519875450608,0.005936258370597417,0.001348434740337605,-0.0026919546609566894,-0.006185891106471339,-0.0089687117086761,-0.01109852692555484,-0.01271099543168213,0.0,0.0,0.0,0.0,0.0,0.0,0.0,0.0,0.0,0.0,0.0,0.0,0.0,0.0,0.0,0.0,0.0,0.0,0.0,0.0,0.0,0.0,0.0,0.0,0.0,0.0,0.0,0.0,0.0,0.0,0.0,0.0,0.0,0.0,0.0,0.0,0.0,0.0,0.0,0.0,0.0,0.0,0.0,0.0,0.0,0.0,0.0,0.0,0.0,0.0,0.0,0.0,0.0,0.0,0.0,0.0,0.0,0.0,0.0,0.0,0.0,0.0,0.0,0.0,0.0,0.0,0.0,0.0,0.0,0.0,0.0,0.0,0.0,0.0,0.0,0.0,0.0,0.0,0.0,0.0,0.0,0.0,0.0,0.0,0.0,0.0,0.0,0.0,0.0,0.0,0.0,0.0,0.0,0.0,0.0,0.0,0.0,0.0,0.0,0.0,0.0,0.0,0.0,0.0,0.0,0.0,0.0,0.0,0.0,0.0,0.0,0.0,0.0,0.0,0.0,0.0,0.0,0.0,0.0,0.0,0.0,0.0,0.0,0.0,0.0,0.0,0.0,0.0,0.0,0.0,0.0,0.0,0.0,0.0,0.0,0.0,0.0,0.0,0.0,0.0,0.0,0.0,0.0,0.0,0.0,0.0,0.0,0.0,0.0,0.0,0.0,0.0,0.0,0.0,0.0,0.0,0.0,0.0,0.0,0.0,0.0,0.0,0.0,0.0,0.0,0.0,0.0,0.0,0.0,0.0,0.0,0.0,0.0,0.0,0.0,0.0,0.0,0.0,0.0,0.0,0.0,0.0,0.0,0.0,0.0,0.0,0.0,0.0,0.0,0.0,0.0,0.0,0.0,0.0,0.0,0.0,0.0,0.0,0.0,0.0,0.0,0.0,0.0,0.0,0.0,0.0,0.0,0.0,0.0,0.0,0.0,0.0,0.0,0.0,0.0,0.0,0.0,0.0,0.0,0.0,0.0,0.0,0.0,0.0,0.0,0.0,0.0,0.0,0.0,0.0,0.0,0.0,0.0,0.0,0.0,0.0,0.0,0.0,0.0
-0.09776090288912016,-0.10342884089570141,-0.10854144723953435,-0.11357767962969434,-0.11922917552416792,-0.12605675758443408,-0.13427055560777834,-0.14361363702956412,-0.15303313568391705,-0.16103056532138302,-0.16571786748235942,-0.1651122703198553,-0.15757531403923208,-0.14205227177583116,-0.11866078605603154,-0.08878434175315764,-0.05500330825714036,-0.02079670563760655,0.010150834596620577,0.03444978061102521,0.049727353936626514,0.05510565380557459,0.05134522308665559,0.04073810142736503,0.026465779833337866,0.011925409751427597,0.0,0.0,0.0,0.0,0.0,0.0,0.0,0.0,0.0,0.0,0.0,0.0,0.0,0.0,0.0,0.0,0.0,0.0,0.0,0.0,0.0,0.0,0.0,0.0,0.0,0.0,0.0,0.0,0.0,0.0,0.0,0.0,0.0,0.0,0.0,0.0,0.0,0.0,0.0,0.0,0.0,0.0,0.0,0.0,0.0,0.0,0.0,0.0,0.0,0.0,0.0,0.0,0.0,0.0,0.0,0.0,0.0,0.0,0.0,0.0,0.0,0.0,0.0,0.0,0.0,0.0,0.0,0.0,0.0,0.0,0.0,0.0,0.0,0.0,0.0,0.0,0.0,0.0,0.0,0.0,0.0,0.0,0.0,0.0,0.0,0.0,0.0,0.0,0.0,0.0,0.0,0.0,0.0,0.0,0.0,0.0,0.0,0.0,0.0,0.0,0.0,0.0,0.0,0.0,0.0,0.0,0.0,0.0,0.0,0.0,0.0,0.0,0.0,0.0,0.0,0.0,0.0,0.0,0.0,0.0,0.0,0.0,0.0,0.0,0.0,0.0,0.0,0.0,0.0,0.0,0.0,0.0,0.0,0.0,0.0,0.0,0.0,0.0,0.0,0.0,0.0,0.0,0.0,0.0,0.0,0.0,0.0,0.0,0.0,0.0,0.0,0.0,0.0,0.0,0.0,0.0,0.0,0.0,0.0,0.0,0.0,0.0,0.0,0.0,0.0,0.0,0.0,0.0,0.0,0.0,0.0,0.0,0.0,0.0,0.0,0.0,0.0,0.0,0.0,0.0,0.0,0.0,0.0,0.0,0.0,0.0,0.0,0.0,0.0,0.0,0.0,0.0,0.0,0.0,0.0,0.0,0.0,0.0,0.0,0.0,0.0,0.0,0.0,0.0,0.0,0.0,0.0,0.0,0.0,0.0,0.0,0.0,0.0,0.0,0.0,0.0,0.0,0.0,0.0,0.0,0.0,0.0,0.0,0.0,0.0,0.0,0.0,0.0,0.0,0.0,0.0,0.0,0.0,0.0,0.0,0.0,0.0,0.0,0.0,0.0,0.0,0.0,0.0,0.0,0.0,0.0,0.0,0.0,0.0,0.0,0.0,0.0,0.0,0.0,0.0,0.0,0.0,0.0,0.0,0.0,0.0,0.0,0.0,0.0,0.0,0.0,0.0,0.0,0.0,0.0,0.0,0.0,0.0,0.0
0.3216048732268664,0.3580528957552284,0.3799104282025833,0.38298947732984284,0.3651633495792596,0.32723757688294325,0.2721695350089153,0.2049602830045029,0.13194071457085357,0.05978541974029488,-0.005121103431865695,-0.05805930613938797,-0.09627281259943712,-0.11910804818813568,-0.1278512160789141,-0.125063148704209,-0.11430257679076944,-0.09932363973676385,-0.08348481547296507,-0.06933232020490947,-0.058399897160162056,-0.05133352588032167,-0.04802391441239477,-0.047861582757794466,-0.049950906173339145,-0.05349898613524048,-0.05780797901832866,-0.062378228605691706,-0.06689928542025061,-0.07117176739593599,-0.07516038670154973,-0.07888387698555395,-0.08242633008396481,-0.08593698808270676,-0.08960795381405438,-0.09367685947478989,-0.09835639390948937,-0.10374886637953198,-0.10976845826360666,-0.11614753080698546,-0.12230971054046617,-0.12762937566700083,-0.13152264021700755,-0.13359992844450655,-0.1338831177445516,-0.13249924612511024,-0.12995628772826165,-0.1268985147018225,-0.1239278164341018,-0.12168988582189255,-0.11994058099495178,-0.1184293145313225,-0.11670335581647907,-0.11425570442369708,-0.1110829248773719,-0.1064791968127006,-0.10052201134263204,-0.09356685402435291,-0.08613395591469623,-0.07904768590175547,-0.07248603033623215,-0.06671844504997491,-0.061879745509066345,-0.05801220740569542,-0.055252115630254034,-0.053490857021193786,-0.052523436390004924,-0.052065266875661896,-0.05179498704947115,-0.051590898240289826,-0.05107422599525889,-0.04996525266657935,-0.04811445851616412,-0.04557776669324689,-0.042867243091578015,-0.04023737361376322,-0.038018704863958315,-0.036407541545950994,-0.03539023453098208,-0.03496813764260318,-0.034476951234897,-0.03315932242847704,-0.030251956401912524,-0.025202702368717265,-0.018112895714509025,-0.009033467973903723,0.0015887229191397512,0.013112355379031068,0.02483670426460803,0.03586243435670313,0.04604168357394229,0.055550640280368,0.06492300020520532,0.07487611089793333,0.08578210458529327,0.09832274707135331,0.11282931520337885,0.12924516204056313,0.14705710903752026,0.1650266354987826,0.18216190827891057,0.19741730280681974,0.20995217940996933,0.21923810717710718,0.22481968906413233,0.22712804719433088,0.22692432108595953,0.22523067489645157,0.22311120670218912,0.22116021467847122,0.22023153498963366,0.22080789632654918,0.2230874972448185,0.22698430622727106,0.2318518830701754,0.2374916163416098,0.24360137779708274,0.2499536033044525,0.25637949954751293,0.2624107309127347,0.26821273025306436,0.27391061984220133,0.2796993187575993,0.28577469286775486,0.2919302200274078,0.298485137098344,0.3055587888179602,0.3131763110888949,0.3212148840790503,0.3290223625383921,0.3365473195720902,0.3436424037456312,0.3503010452396324,0.35665507529034574,0.3625266795577887,0.3685394678055797,0.37513971350234226,0.3826488866418795,0.39109949252519716,0.39971699234907715,0.4081860055175459,0.4157823873263286,0.42177022826025606,0.4255439097600485,0.4263102208230581,0.4244827660159045,0.42058737502651206,0.0,0.0,0.0,0.0,0.0,0.0,0.0,0.0,0.0,0.0,0.0,0.0,0.0,0.0,0.0,0.0,0.0,0.0,0.0,0.0,0.0,0.0,0.0,0.0,0.0,0.0,0.0,0.0,0.0,0.0,0.0,0.0,0.0,0.0,0.0,0.0,0.0,0.0,0.0,0.0,0.0,0.0,0.0,0.0,0.0,0.0,0.0,0.0,0.0,0.0,0.0,0.0,0.0,0.0,0.0,0.0,0.0,0.0,0.0,0.0,0.0,0.0,0.0,0.0,0.0,0.0,0.0,0.0,0.0,0.0,0.0,0.0,0.0,0.0,0.0,0.0,0.0,0.0,0.0,0.0,0.0,0.0,0.0,0.0,0.0,0.0,0.0,0.0,0.0,0.0,0.0,0.0,0.0,0.0,0.0,0.0,0.0,0.0,0.0,0.0,0.0,0.0,0.0,0.0,0.0,0.0,0.0,0.0,0.0,0.0,0.0,0.0,0.0,0.0,0.0,0.0,0.0,0.0,0.0,0.0,0.0,0.0,0.0,0.0,0.0,0.0,0.0,0.0,0.0,0.0,0.0,0.0,0.0,0.0,0.0,0.0,0.0,0.0,0.0,0.0,0.0,0.0,0.0,0.0,0.0,0.0,0.0,0.0,0.0,0.0,0.0,0.0,0.0
0.8704619422505303,0.9408231679748377,0.9861693384573809,1.0006505165814363,0.9814608694701275,0.9310337232385404,0.8548750182559695,0.7612946447712549,0.6601158952173743,0.5606545083115563,0.47214612829836444,0.4008093975889352,0.349878254858774,0.3195812738533124,0.3070433318191411,0.3088813480257707,0.3202609245147886,0.33637864486755753,0.3531713126809308,0.36719544379953856,0.3775471667089873,0.38387370014995664,0.38664228618129526,0.38676135150854923,0.3846802112398585,0.38190680659123616,0.3790449778847695,0.3763586874377553,0.3738607524627552,0.37091700581605275,0.3680839749133766,0.3654064788676418,0.3629883297666525,0.3609601534169612,0.35891376363632393,0.3575021235421946,0.3566893035211387,0.3563067094338271,0.35611029489879636,0.3553577353385667,0.35449070657110954,0.35349004014954694,0.3523931421154313,0.3512604363806316,0.349643833742637,0.3481338982580231,0.34672180750581916,0.3453317996151964,0.34387408503613826,0.3416533685722981,0.33962510213978786,0.33796232328688713,0.33685368210829747,0.3364877336916449,0.3361902809468347,0.33720777694711124,0.3394066781037953,0.342415651375638,0.3457550499438874,0.34816245693662745,0.3503301124406416,0.35218583604051235,0.3537361919100379,0.3550223661961299,0.3552807405138642,0.35536749638766374,0.3555116373963197,0.3559095989815172,0.3566618849325973,0.3571514066135392,0.3578327455539929,0.35847448200269677,0.3587471191735742,0.3583014036690647,0.356511106926852,0.35371729569697413,0.3499546961804412,0.345412044196923,0.3404285771345975,0.33506755229893215,0.33030290643433635,0.32653603673295994,0.32396517401507763,0.3225557506001302,0.3216458985785582,0.32138603317031256,0.3213941032208036,0.3213291604306544,0.3209931440663525,0.31998072197108024,0.31900479655681446,0.318408045088912,0.3184984591410448,0.3194305375325747,0.3207192485305595,0.3225107887946708,0.3242605344299696,0.32533736557265824,0.3252736516502866,0.32366109781131,0.3216485001987813,0.32070857303375366,0.32300355077470705,0.3311167657679985,0.3472167113470327,0.37369075116502776,0.4112287896072587,0.45877078302981716,0.5133060294216664,0.569663055701976,0.622228790695051,0.6644763955353028,0.6903939869201849,0.6954952930753343,0.6772750675086352,0.6368176496214903,0.5774854872158702,0.5048711716390829,0.42597977252070823,0.34782595286074,0.2776528777203596,0.22069377317830152,0.18004050478118233,0.15646425196608213,0.14820192024932516,0.15280324716110244,0.16637994075842907,0.18478479328571845,0.20425910749623186,0.22150900623756756,0.23521407969874453,0.2446705824842857,0.2500383611931902,0.2520539630263815,0.25134777406599884,0.24937455745533496,0.2469443955058156,0.24455138548936878,0.24239799340392876,0.24013238680344431,0.2381107213039226,0.23624709772028596,0.23446870318972932,0.23274202378147604,0.23073510910362846,0.22890072884188165,0.2272556731355083,0.0,0.0,0.0,0.0,0.0,0.0,0.0,0.0,0.0,0.0,0.0,0.0,0.0,0.0,0.0,0.0,0.0,0.0,0.0,0.0,0.0,0.0,0.0,0.0,0.0,0.0,0.0,0.0,0.0,0.0,0.0,0.0,0.0,0.0,0.0,0.0,0.0,0.0,0.0,0.0,0.0,0.0,0.0,0.0,0.0,0.0,0.0,0.0,0.0,0.0,0.0,0.0,0.0,0.0,0.0,0.0,0.0,0.0,0.0,0.0,0.0,0.0,0.0,0.0,0.0,0.0,0.0,0.0,0.0,0.0,0.0,0.0,0.0,0.0,0.0,0.0,0.0,0.0,0.0,0.0,0.0,0.0,0.0,0.0,0.0,0.0,0.0,0.0,0.0,0.0,0.0,0.0,0.0,0.0,0.0,0.0,0.0,0.0,0.0,0.0,0.0,0.0,0.0,0.0,0.0,0.0,0.0,0.0,0.0,0.0,0.0,0.0,0.0,0.0,0.0,0.0,0.0,0.0,0.0,0.0,0.0,0.0,0.0,0.0,0.0,0.0,0.0,0.0,0.0,0.0,0.0,0.0,0.0,0.0,0.0,0.0,0.0,0.0,0.0,0.0,0.0,0.0,0.0,0.0,0.0,0.0,0.0,0.0,0.0,0.0,0.0,0.0,0.0
0.6772750675086352,0.6368176496214903,0.5774854872158702,0.5048711716390829,0.42597977252070823,0.34782595286074,0.2776528777203596,0.22069377317830152,0.18004050478118233,0.15646425196608213,0.14820192024932516,0.15280324716110244,0.16637994075842907,0.18478479328571845,0.20425910749623186,0.22150900623756756,0.23521407969874453,0.2446705824842857,0.2500383611931902,0.2520539630263815,0.25134777406599884,0.24937455745533496,0.2469443955058156,0.24455138548936878,0.24239799340392876,0.24013238680344431,0.2381107213039226,0.23624709772028596,0.23446870318972932,0.23274202378147604,0.23073510910362846,0.22890072884188165,0.2272556731355083,0.2257653084631666,0.22436500044064533,0.22265914183211127,0.22102861953970437,0.2194340459081279,0.21779495942126859,0.2159879770998146,0.21353152466735711,0.21068625813175307,0.20730765784185942,0.20330481335735676,0.1987249585193438,0.19339531966452073,0.18839313572466587,0.18432801467241935,0.1818300201601408,0.18146193993887294,0.1830924994168028,0.18762693499583558,0.1947869825164165,0.20388490166724296,0.2139631086084829,0.22354643968632515,0.23222473896342544,0.23923301216139772,0.2440515549576277,0.24646427727809278,0.24624290572167137,0.24410394285407502,0.24067713673688695,0.23665244967558752,0.23264220197562982,0.22877612301601488,0.2255808451944807,0.22303151000190455,0.22089455603144942,0.2188201266731669,0.21618570833069622,0.21307447148453604,0.20939049369388876,0.20519368339538174,0.20068889069559018,0.1959246579344321,0.19154810465789762,0.18781830400009497,0.18484149375646491,0.18255765471801347,0.1805327802806633,0.17880405500480334,0.1771002579583141,0.175203304883673,0.17301949290169283,0.1703946055627633,0.16783678525084353,0.16565167981546366,0.16413128832661011,0.16348133108537216,0.16356054694067632,0.16453972670073042,0.1661559567591205,0.16803186587041014,0.16978838925396328,0.17097558940857152,0.17182656145738384,0.17259700345031698,0.17379253652429463,0.17609544742255437,0.18004202861922666,0.1864562733251111,0.19559757042997664,0.20724344147231602,0.22064361679943978,0.23438404896780232,0.24720521876987958,0.2574987630160947,0.2638280918408314,0.26519178617632516,0.2610058011525703,0.2518767528616938,0.2387338338817883,0.22293935041600282,0.20606636908551287,0.18944580814149367,0.1746384252259797,0.16248383648144346,0.15330231926345478,0.14694095199470056,0.14269111755561723,0.140143622656316,0.13858237263806297,0.13737829698056508,0.13608595107329924,0.13428578860379914,0.1322034441001401,0.12992917824789166,0.12757749585630795,0.1252309501518979,0.12273216287099492,0.12028094097974926,0.11780261112701954,0.11521018466101096,0.11245870032649341,0.10941000518371338,0.10641979036248621,0.10368067684565975,0.1013862060024235,0.09968645050108894,0.09848236538196405,0.0979667701796105,0.09802022502657715,0.09844053661496965,0.09899507753901375,0.09931233803826647,0.09946024402340825,0.0,0.0,0.0,0.0,0.0,0.0,0.0,0.0,0.0,0.0,0.0,0.0,0.0,0.0,0.0,0.0,0.0,0.0,0.0,0.0,0.0,0.0,0.0,0.0,0.0,0.0,0.0,0.0,0.0,0.0,0.0,0.0,0.0,0.0,0.0,0.0,0.0,0.0,0.0,0.0,0.0,0.0,0.0,0.0,0.0,0.0,0.0,0.0,0.0,0.0,0.0,0.0,0.0,0.0,0.0,0.0,0.0,0.0,0.0,0.0,0.0,0.0,0.0,0.0,0.0,0.0,0.0,0.0,0.0,0.0,0.0,0.0,0.0,0.0,0.0,0.0,0.0,0.0,0.0,0.0,0.0,0.0,0.0,0.0,0.0,0.0,0.0,0.0,0.0,0.0,0.0,0.0,0.0,0.0,0.0,0.0,0.0,0.0,0.0,0.0,0.0,0.0,0.0,0.0,0.0,0.0,0.0,0.0,0.0,0.0,0.0,0.0,0.0,0.0,0.0,0.0,0.0,0.0,0.0,0.0,0.0,0.0,0.0,0.0,0.0,0.0,0.0,0.0,0.0,0.0,0.0,0.0,0.0,0.0,0.0,0.0,0.0,0.0,0.0,0.0,0.0,0.0,0.0,0.0,0.0,0.0,0.0,0.0,0.0,0.0,0.0,0.0,0.0
0.5810187215839311,0.6243916890152823,0.6387758400351572,0.6223143234489263,0.5769843346457787,0.5080952183109635,0.423472039872103,0.3322018057726571,0.24319720221066982,0.1641252661154245,0.100259701551084,0.054135605872355774,0.025627771510157042,0.012385012409560192,0.010838573455606891,0.016761453538381783,0.026148003848836303,0.03578250614610493,0.043464533943261476,0.04825243976455702,0.049970492564928935,0.04899621425680437,0.04593724078205282,0.04131439312826132,0.035645269898631864,0.029145309294771802,0.021917731521894353,0.014095943566180644,0.005886808493315972,-0.002086003924414766,-0.009145851253523306,-0.014569306575136273,-0.017745353649691535,-0.01843519103440757,-0.016526388419408795,-0.012420855137394,-0.006835894566189154,-0.0006517688451426522,0.0051796242073133235,0.010078367956020535,0.013634953876526615,0.01572147755797325,0.01644181595940623,0.015969588085949008,0.014678371648064544,0.01284943621393183,0.010707021672902259,0.008424920382452886,0.005812976142340057,0.0035113620069916725,0.0017351793938231602,0.0006644605141830271,0.00040802480549954217,0.0003440081881239169,0.0012006357104037651,0.002772525150451328,0.004747575346821753,0.006816401112789404,0.008442970213376593,0.009936888818742171,0.011261589599404364,0.012378246520967967,0.01322477742007927,0.013716559758473076,0.013764217515458763,0.013285255953618489,0.012268787786138649,0.010820481093914354,0.009174669561736324,0.007714661500260577,0.006852804105449753,0.0069850666354230664,0.008416184767749442,0.011279461061680582,0.015579628550870202,0.02108876538335775,0.02742946660858262,0.0341455190417872,0.040783800627675636,0.046945399020681906,0.05231438294366078,0.056670902210777044,0.05987485331582494,0.06186761348168368,0.06255111039205685,0.061885202625286025,0.059903380281856815,0.05679819165712322,0.05305843300662582,0.049488647732084695,0.0473178400109264,0.0481357650855944,0.053721529998421516,0.06577229368104034,0.08545889793528369,0.1130644701983913,0.14767915718879945,0.18707874562993396,0.22784525838559452,0.26574499778668015,0.29630112539050324,0.31549423798414294,0.3204359612614464,0.30985995858556503,0.2844377439075983,0.24664799367806897,0.20039956537611883,0.15040683306224698,0.10143733833620447,0.05767348595571222,0.02212087115790707,-0.003669873895491096,-0.019622295136952475,-0.02692210592564609,-0.027564445501989034,-0.023930693801746866,-0.018318871709781477,-0.012596409485242967,-0.008047450636111625,-0.005214442823463347,-0.004112460483833014,-0.0043941857517839035,-0.005570523833533457,-0.007264028861828233,-0.009118403818664014,-0.010988151344726723,-0.01285715506752665,-0.01476602437169497,-0.016916316730869237,-0.019088408352566744,-0.02110015131544348,-0.02275846988777213,-0.02396152490985648,-0.025066084343031043,-0.026026202779762808,-0.027070884986419453,-0.028415204574689896,-0.03016558691958322,-0.03239679628595218,-0.034667533212539715,-0.036472193228628276,-0.03722049455990267,-0.03636964892930995,-0.03356265106490167,-0.02867536653014002,-0.021941413442185403,-0.013870185782977997,0.0,0.0,0.0,0.0,0.0,0.0,0.0,0.0,0.0,0.0,0.0,0.0,0.0,0.0,0.0,0.0,0.0,0.0,0.0,0.0,0.0,0.0,0.0,0.0,0.0,0.0,0.0,0.0,0.0,0.0,0.0,0.0,0.0,0.0,0.0,0.0,0.0,0.0,0.0,0.0,0.0,0.0,0.0,0.0,0.0,0.0,0.0,0.0,0.0,0.0,0.0,0.0,0.0,0.0,0.0,0.0,0.0,0.0,0.0,0.0,0.0,0.0,0.0,0.0,0.0,0.0,0.0,0.0,0.0,0.0,0.0,0.0,0.0,0.0,0.0,0.0,0.0,0.0,0.0,0.0,0.0,0.0,0.0,0.0,0.0,0.0,0.0,0.0,0.0,0.0,0.0,0.0,0.0,0.0,0.0,0.0,0.0,0.0,0.0,0.0,0.0,0.0,0.0,0.0,0.0,0.0,0.0,0.0,0.0,0.0,0.0,0.0,0.0,0.0,0.0,0.0,0.0,0.0,0.0,0.0,0.0,0.0,0.0,0.0,0.0,0.0,0.0,0.0,0.0,0.0,0.0,0.0,0.0,0.0,0.0,0.0,0.0,0.0,0.0,0.0,0.0,0.0,0.0,0.0,0.0,0.0,0.0,0.0,0.0,0.0,0.0,0.0,0.0
