0.34984150511348255,0.45512365392792037,0.5624488125173471,0.6617304814280317,0.743087114658456,0.7985196288000835,0.823234219457455,0.816218129355001,0.7808345674868176,0.7236626385129372,0.6533208308331618,0.5788630458710794,0.507977856709419,0.4465492637060237,0.39747413867199055,0.36083896847540287,0.33449187228470373,0.31466802428201457,0.2979568505088467,0.2814864072907466,0.2636293928921866,0.24408866355910813,0.22323667565005836,0.20268366625542092,0.18381137766343258,0.16747350708803765,0.1536854548335125,0.14118930953281153,0.12900803126466262,0.11587668167321083,0.1009649031704196,0.0841879881257109,0.06592839204556314,0.047999249616279605,0.03235432553717046,0.02083788085681047,0.014690521417909287,0.013899998072257991,0.01807903647781047,0.025828704664235973,0.03535222691638783,0.04491909433553031,0.053086242898324094,0.05957431252530572,0.0647360832359017,0.06952668467411034,0.07514766725315135,0.08256151765346997,0.0924356914989622,0.10467532576682005,0.11857539475707858,0.13306222284298602,0.14684688025527962,0.15954962459146144,0.1708615956017125,0.18106367765738954,0.1909767784328207,0.20141618652376198,0.21411469273695724,0.22950283071754712,0.24725833277741102,0.2664069557132395,0.2854509859176598,0.3034165503072721,0.319089466202521,0.3318336186308578,0.34183713299365837,0.3501316893276793,0.35839787048566646,0.36806915928266465,0.3800526297604884,0.3943839980654108,0.41013325390919564,0.4255719833256477,0.43829630343297943,0.4459654268016963,0.44693086313716324,0.4407293105991961,0.42818598956818166,0.4110707711266472,0.39170274702411373,0.3723482159385469,0.35473359439867946,0.339442870983951,0.3259031379906599,0.3126374125845137,0.29776556873993054,0.27973201368040296,0.25742319788029,0.23074872621841047,0.2006068638512121,0.16865848627868932,0.13703035240895012,0.1075029715724531,0.08129323859198798,0.058788221496606126,0.03955140381744808,0.02263758835535292,0.0066817158903979155,-0.009589621678951202,-0.02701304892838621,-0.04576662441733278,-0.0652885191895542,-0.08455598869410101,-0.10246545141596802,-0.11811794626615191,-0.13108465265211364,-0.1415220167503428,-0.15006754876494133,-0.15786114531779485,-0.16606069932186218,-0.17543872693310897,-0.18608730527635384,-0.19718205559952423,-0.2074983432541235,-0.21551851717031117,-0.2197928012141043,-0.21932535264846648,-0.2136290771218757,-0.2033571049946647,-0.18992275243010598,-0.1751562169058415,-0.160959398610415,-0.1485920560304868,-0.1391449203183392,-0.13313770048435777,-0.13051963259757865,-0.13089013309602454,-0.13318488548964158,-0.13672837066086482,-0.1409752673560187,-0.14549266404275543,-0.1499740754217355,-0.153841651270248,-0.156916343385724,-0.15912414273403952,-0.16046569548793221,-0.16102965760692736,-0.16077054833602933,-0.15998306635107543,-0.15902490505733638,-0.15820561526979232,-0.1579412184854044,-0.1578856605631907,-0.15776486763903558,-0.1572221561622874,-0.1559455350516524,-0.15425610999532524,-0.15173964740036927,-0.14837567180226702,-0.1442483547606815,-0.13955995347013822,-0.1352919981121287,-0.13131032279033047,-0.12778270652240892,-0.12493794452199887,-0.123174371888624,-0.12390577753770138,-0.12707612138873922,-0.1326415994661386,-0.14010914831915125,-0.14860027434269776,-0.15741895957147062,-0.16522960868883316,-0.17094728611167828,-0.1739024967817682,-0.17402617679677154,-0.17181382929571623,-0.16838242644857446,-0.1647396987529331,-0.16163307547762062,-0.15933565537886224,-0.15748627572796545,-0.15564979528007467,-0.1531084993620857,-0.14940417743775908,-0.14464513396095297,-0.13944388314368666,-0.13537112834359188,-0.13396612119462675,-0.13635568826707362,-0.14266756377008052,-0.1513727167175205,-0.15987348205773247,-0.1640577835140396,-0.15916067351312663,-0.1406899935792082,-0.1051800903227866,-0.05190652121580638,0.017443415458608554,0.09858857273580438,0.18532657788747098,0.27096829392526606,0.34899051385514746,0.4152203218448291,0.46857668204862335,0.5113431493541502,0.5488325509357771,0.5872726723495156,0.6327228076720094,0.6889540992470684,0.7559968329677932,0.8297633798565857,0.9017547951343906,0.9612370366240467,0.9971855419289486,1.0006505165814363,0.966988908411955,0.8963166733143346,0.794253595125855,0.6706859295444579,0.5378990919172938,0.40854874005048414,0.2928140103942694,0.19756429569609027,0.12545341118976164,0.07514766725315135,0.04253402609982985,0.021425589833972167,0.005814432300714358,-0.009121128735073319,-0.026273432535876228,-0.046298353755787704,-0.06845754153982689,-0.09077885688023428,-0.11107632505980472,-0.1276945323249038,-0.13991122879422777,-0.14828558458425053,-0.15406941218297213,-0.15887241849668435,-0.1641383258424095,-0.17072034225310434,-0.17869339021101496,-0.18722506431054284,-0.19497827940150958,-0.20058211935991527,-0.20317034450894778,-0.20249692053604174,-0.19898005690155007,0.0,0.0,0.0,0.0,0.0,0.0,0.0,0.0,0.0,0.0,0.0,0.0,0.0,0.0,0.0,0.0,0.0,0.0,0.0,0.0,0.0,0.0,0.0,0.0,0.0,0.0,0.0,0.0,0.0,0.0,0.0,0.0,0.0,0.0,0.0,0.0,0.0,0.0,0.0,0.0,0.0,0.0,0.0,0.0,0.0,0.0,0.0,0.0,0.0,0.0,0.0,0.0,0.0,0.0,0.0,0.0,0.0,0.0,0.0,0.0
0.5113431493541502,0.5488325509357771,0.5872726723495156,0.6327228076720094,0.6889540992470684,0.7559968329677932,0.8297633798565857,0.9017547951343906,0.9612370366240467,0.9971855419289486,1.0006505165814363,0.966988908411955,0.8963166733143346,0.794253595125855,0.6706859295444579,0.5378990919172938,0.40854874005048414,0.2928140103942694,0.19756429569609027,0.12545341118976164,0.07514766725315135,0.04253402609982985,0.021425589833972167,0.005814432300714358,-0.009121128735073319,-0.026273432535876228,-0.046298353755787704,-0.06845754153982689,-0.09077885688023428,-0.11107632505980472,-0.1276945323249038,-0.13991122879422777,-0.14828558458425053,-0.15406941218297213,-0.15887241849668435,-0.1641383258424095,-0.17072034225310434,-0.17869339021101496,-0.18722506431054284,-0.19497827940150958,-0.20058211935991527,-0.20317034450894778,-0.20249692053604174,-0.19898005690155007,-0.19359616484568978,-0.1875866581056109,-0.1822938472089398,-0.17826657476408492,-0.17579310349549124,-0.17471454651406573,-0.1745911968513065,-0.17520810917126622,-0.17572670834849485,-0.17612064887209633,-0.1766037207711882,-0.17741629712398135,-0.1789531508055791,-0.18032411338328877,-0.1812118900608102,-0.18127564138537058,-0.18024139739665623,-0.17840410145554927,-0.1750832847161515,-0.17091261950338718,-0.1667462079722981,-0.16329079576060707,-0.1609564592469405,-0.15897136997780198,-0.15656893854606846,-0.15271521926974405,-0.14634019412455787,-0.1365459900422364,-0.12299814297480263,-0.10603039813783996,-0.08660346785188855,-0.06610734638059178,-0.04591101813846857,-0.02740672289455586,-0.011353286796538218,0.002237174818031437,0.014125501363374312,0.025869655364215233,0.03880541024099566,0.054229980473048285,0.07276868197178352,0.09407583908007291,0.11699761777835667,0.1390161357575422,0.15743413564928652,0.16971046044360769,0.17402617679677154,0.16996345055206274,0.15782356927565502,0.13935823467514025,0.11709879713129052,0.09379332905280545,0.07211435933765187,0.05327578459807863,0.03772294997083621,0.02490426087707398,0.013560481308839342,0.0024773584617701068,-0.010065078424977572,-0.02495945740715794,-0.04234511739025377,-0.061587185944312006,-0.08113693038960171,-0.09976222751237884,-0.11595776360840179,-0.12851664102313612,-0.13673485319746337,-0.14022197102757225,-0.13975826156509208,-0.13629161675327375,-0.13101405930742743,-0.12515194207949643,-0.11953199772293394,-0.11523814776585938,-0.1127634784321384,-0.1122539103760647,-0.11356903096152948,-0.11616101555820814,-0.11987102912891354,-0.12432266125512643,-0.12918548502225566,-0.134192262952056,-0.1389820290277706,-0.14354013758918677,-0.14775665086695608,-0.15153962487958286,-0.15481549494258248,-0.15745794777190142,-0.15952317272750707,-0.16109410395173057,-0.1622995472964496,-0.16329079576060707,-0.16413661499510743,-0.16505923365057026,-0.16637547973634426,-0.1684741940140115,-0.17176609657863162,-0.17650466473976742,-0.18293279518848035,-0.19119945048802547,-0.20119309007179645,-0.21244754050514963,-0.22400281010159426,-0.23482554506780426,-0.24383931968298742,-0.2501330190080204,-0.25312898443166765,-0.2525446084534356,-0.24883590176314407,-0.24280834646902238,-0.23550812593325188,-0.2279855920048614,-0.22090134076504592,-0.2149016245864151,-0.21009604969654277,-0.2062369416561817,-0.20284219957805513,-0.19916599472599741,-0.19499586701152297,-0.19013796364780103,-0.18465522866960216,-0.1788288472603188,-0.17317194984535378,-0.16798262374886916,-0.16332974605463882,-0.1590478931802418,-0.15481549494258248,-0.1507145422993723,-0.146098567374172,-0.14052377850575634,-0.13371526157338995,-0.1257169621340314,-0.11719427660735873,-0.108918060103973,-0.10194651361633042,-0.09746686944791644,-0.09661842932548029,-0.10023864123740434,-0.10883045392599157,-0.12209232034216054,-0.1390005489390394,-0.1579231052425248,-0.17674824811449102,-0.19365035767961306,-0.2069447719008316,-0.21556300757232746,-0.21922778115956934,-0.21824588266970654,-0.21399347740786387,-0.2079019495311525,-0.20132093612982166,-0.19521442884183302,-0.18978577758895923,-0.18517839008001796,-0.18089496935563334,-0.17635018448420026,-0.17120107652409672,-0.16537932841923,-0.15986321348629437,-0.15568404979484915,-0.15383943534648886,-0.15481549494258245,-0.15791768666522574,-0.16157886767615054,-0.16254704020788724,-0.15644056495805164,-0.1384299133610683,-0.10402380586713168,-0.050703366935069126,0.021822796731619774,0.11081914454718104,0.21046997031427728,0.3125551595257194,0.40714640892394743,0.48461307427592654,0.5370047850739943,0.5593698539896227,0.5506309660397904,0.513455626860901,0.45404336617775987,0.3808085796569621,0.30285074923074523,0.2283619220576215,0.16347001955164392,0.11158094162783105,0.07319363607982807,0.04633164447186775,0.02724275465911729,0.011908467776061134,-0.0031654849280046554,-0.020198368469868673,-0.03983391384471557,-0.06146681699247165,-0.08314232364049289,-0.10244450128647184,-0.11718602384350155,0.0,0.0,0.0,0.0,0.0,0.0,0.0,0.0,0.0,0.0,0.0,0.0,0.0,0.0,0.0,0.0,0.0,0.0,0.0,0.0,0.0,0.0,0.0,0.0,0.0,0.0,0.0,0.0,0.0,0.0,0.0,0.0,0.0,0.0,0.0,0.0,0.0,0.0,0.0,0.0,0.0,0.0,0.0,0.0,0.0,0.0,0.0,0.0,0.0,0.0,0.0,0.0,0.0,0.0,0.0,0.0,0.0,0.0,0.0,0.0
0.5506309660397904,0.513455626860901,0.45404336617775987,0.3808085796569621,0.30285074923074523,0.2283619220576215,0.16347001955164392,0.11158094162783105,0.07319363607982807,0.04633164447186775,0.02724275465911729,0.011908467776061134,-0.0031654849280046554,-0.020198368469868673,-0.03983391384471557,-0.06146681699247165,-0.08314232364049289,-0.10244450128647184,-0.11718602384350155,-0.1259994721612989,-0.12891153449189813,-0.12667165721811496,-0.12072294398416207,-0.11279755056221255,-0.10452871008896993,-0.09734969722005246,-0.09184977480933426,-0.08796844273423293,-0.08522930890390468,-0.08305794801664097,-0.08119958518568356,-0.07953048697771539,-0.07810785605563594,-0.07708569760112562,-0.07656021738948877,-0.07648231854996633,-0.07650884202716794,-0.07594793586174384,-0.07401019725136661,-0.07006248676233658,-0.06381842844861764,-0.05561569805237069,-0.04609596188162411,-0.036131498277838923,-0.02655594256314371,-0.017928068622911585,-0.010068894349987718,-0.0023972268826744467,0.006161146662535941,0.016950601636049174,0.031106816778228602,0.04983789128214706,0.07303305319232442,0.09965675174868811,0.12797704235217128,0.1560059268143852,0.18201879415169916,0.20465440909456709,0.2234502721059595,0.23900348306829333,0.25304494265405625,0.2674398209195053,0.2839849861874263,0.30373375481346254,0.32658159152121413,0.35142057997250387,0.37553867726693657,0.3958335935206026,0.4093772581033022,0.4141596999741348,0.4099574627097727,0.3974120265007517,0.3787206946699616,0.3567864073978957,0.33449187228470373,0.31436498707243576,0.2970981219957221,0.2823678452743537,0.26886210778340186,0.2548240445952726,0.23900322838001964,0.2201455912421311,0.1981149710555154,0.17363687908403952,0.14803525428816278,0.12312857697095102,0.09983859780570994,0.07867758750375659,0.05942275863916076,0.04124646398105299,0.02330999679358708,0.004242094321593846,-0.016761529879726914,-0.03990260321260451,-0.06469479624425434,-0.09002039515054523,-0.1144982204200047,-0.13670681305529284,-0.15557265562181918,-0.1706360564695617,-0.1823728336135967,-0.19144677494920287,-0.19897414564771398,-0.20607321694346303,-0.2135775806142196,-0.22197966798693206,-0.23099248502684205,-0.24013428549986557,-0.24880363684487858,-0.2565191047588775,-0.26312084161595317,-0.2686505148282215,-0.27365307047522563,-0.2787769090330081,-0.28448759745835867,-0.2910272021406511,-0.2977112149455606,-0.3039071128499292,-0.30896307757354047,-0.31245609015783976,-0.31469016922128146,-0.3156027234593566,-0.31593425557181604,-0.31649434240180124,-0.317823780675922,-0.3201458030729753,-0.3226281497015697,-0.3244541784447218,-0.3248070023743628,-0.32319147119400427,-0.3197296308674335,-0.3149497174468981,-0.31009541546979663,-0.30651548770170545,-0.3051108294488852,-0.3057963805789657,-0.3072094467089376,-0.3068584389382845,-0.3013602079234919,-0.28703018770376604,-0.26054069437620136,-0.22001329168500625,-0.1654630951023793,-0.0991399171718907,-0.025425902454073765,0.049841067324915854,0.11965296685956717,0.1773150267405486,0.21731918703497,0.2361783827956185,0.23316617072427798,0.20963105180524347,0.169443365329541,0.11809772322069513,0.0618696959715795,0.0071496892248687875,-0.0409485240890532,-0.0783496806572966,-0.10251001023705654,-0.11243899085245954,-0.10839690794715032,-0.09220090798118256,-0.0662506235027452,-0.03354005589387277,0.0025425902454073814,0.038488448035819994,0.07060770081716644,0.09586959550186537,0.11196329389886624,0.1175241713432743,0.11226423678797573,0.09694305384398433,0.07364180955688948,0.04524905166876919,0.014973031445176772,-0.014134108979623616,-0.039932184837716586,-0.06092780767303449,-0.07664557993068118,-0.08757810845292074,-0.09481465703891924,-0.10019048420168462,-0.10512583600430592,-0.11059109094049831,-0.11695915128873931,-0.12380234054900283,-0.13086063068902215,-0.13736051954813905,-0.1426294225534159,-0.14634019412455787,-0.14830381447648847,-0.1494965478676954,-0.15073370772864997,-0.15275461473341254,-0.1559455350516524,-0.15989251783117614,-0.16405626167656473,-0.16728823193604428,-0.16821532923820418,-0.16555087597874696,-0.15824900460459831,-0.14615249376164677,-0.1300401486449269,-0.11141018785270691,-0.09209826888920053,-0.07355677863904156,-0.0570687019762403,-0.042981974129851656,-0.030671219121060616,-0.01864566179965409,-0.004600234738602485,0.013101478009397542,0.03568794456855209,0.06327319447889523,0.09464085913460792,0.12731828073257725,0.1580854047038308,0.1835278725886065,0.2007437106382112,0.2079273800688699,0.204353030470404,0.19154933190174278,0.17201604489439115,0.1489314080045761,0.1254344521067639,0.10381830866028167,0.08540819292398308,0.07010016498123044,0.056611181641931636,0.04294152414465791,0.027125973645019678,0.0074449137982415935,-0.016708287927030836,-0.0447711333678768,-0.07514766725315136,-0.10533043361490854,-0.13337668539337177,-0.15765758418717601,-0.17748673036737703,-0.1932368586509606,0.0,0.0,0.0,0.0,0.0,0.0,0.0,0.0,0.0,0.0,0.0,0.0,0.0,0.0,0.0,0.0,0.0,0.0,0.0,0.0,0.0,0.0,0.0,0.0,0.0,0.0,0.0,0.0,0.0,0.0,0.0,0.0,0.0,0.0,0.0,0.0,0.0,0.0,0.0,0.0,0.0,0.0,0.0,0.0,0.0,0.0,0.0,0.0,0.0,0.0,0.0,0.0,0.0,0.0,0.0,0.0,0.0,0.0,0.0,0.0
-0.69192915386386,-0.6758074050666788,-0.6552756481137599,-0.6353650513245765,-0.618911480806517,-0.6072216670798785,-0.5992290115722977,-0.592518034658311,-0.5842307363891616,-0.5716258658976101,-0.5538250363081532,-0.5308852065084994,-0.5040759637952743,-0.4754643758911794,-0.4470052685830786,-0.42108717107590965,-0.3989630168820722,-0.3809806145080265,-0.3666980153931972,-0.35483738651252755,-0.3447591897373473,-0.3356225138958899,-0.32690406849492865,-0.31838880073045706,-0.3096569730971849,-0.30102336268279334,-0.2921209883558967,-0.28217842391892173,-0.27007958606771687,-0.25421071009615465,-0.23401303194203157,-0.20906665734034108,-0.1797721367266672,-0.14747023423362784,-0.11408804306712253,-0.08261044643182547,-0.05585310225173595,-0.036144359434187416,-0.024860882399538792,-0.022023873473056475,-0.026652896660891517,-0.03679684896526673,-0.050007625550621285,-0.0638472661624519,-0.07636123771666686,-0.08653062564131556,-0.09396304039850285,-0.09906010703252732,-0.102833649925365,-0.10672911545848772,-0.1121383638670813,-0.11943305233993858,-0.12828135091567666,-0.1378648933065333,-0.1471586122325183,-0.15572331423492178,-0.16292292220498278,-0.1685493636358837,-0.1728961366877016,-0.17640304383034772,-0.18043933205425014,-0.18560270019092392,-0.19204681813630106,-0.19945207925084532,-0.2067731564904712,-0.21371723462815417,-0.21950669508302015,-0.22362911217299794,-0.22600802181398902,-0.22656521660088838,-0.22660904751130995,-0.22702128463770443,-0.22845450529371963,-0.23109320230480376,-0.2341458889796116,-0.2372165657597849,-0.23919785254535053,-0.23905044004935577,-0.23617838279561854,-0.23036566471421216,-0.22292738667167084,-0.21537789186197254,-0.20934073710824208,-0.20594980987799746,-0.20500743746039626,-0.20527198137579877,-0.20360411452122643,-0.19548097733967826,-0.17572123696037648,-0.13941170487324223,-0.08347554528684506,-0.007401044128954653,0.08602850914394651,0.19069426840555326,0.297878958832028,0.39717953793213573,0.4784541755309026,0.533426778620078,0.557109773771483,0.5487190284052307,0.5114745889726258,0.4521941689102711,0.3798186138825773,0.3036982793125477,0.23189795418112766,0.1698600224150742,0.11990093295004937,0.08116031957428255,0.05028678485361255,0.02250152467864715,-0.006850484561626525,-0.0410575199501302,-0.08132219581183626,-0.12656449221583382,-0.17388811638113694,-0.21915812071694465,-0.2579626734170932,-0.28670856978938286,-0.30341576928528025,-0.30819632482336884,-0.30290821910910176,-0.29054550219570857,-0.2745799376608217,-0.25821416492248245,-0.24382776643176296,-0.23265468150707136,-0.22455549263235972,-0.21848274679123142,-0.21301256055968465,-0.20684488337629858,-0.19939265509891813,-0.19051128533206954,-0.18059646920137576,-0.17035354644229422,-0.16036841305005275,-0.1512949672018262,-0.1431370211631773,-0.1354829377007261,-0.1276945323249038,-0.1189523552488301,-0.10919593882514171,-0.09851335755880918,-0.08733933832162714,-0.0762777073622213,-0.06574300066002035,-0.055864554573676506,-0.04637115154492831,-0.03645274931601311,-0.02486088239953879,-0.010224135483270844,0.008912266091149356,0.032824959962459384,0.06080667801305851,0.09125073880739808,0.12207426468730045,0.15093571088023153,0.17559117552559947,0.1945318573603672,0.20736236001433492,0.21518359547110083,0.2195475689833228,0.2225265246873056,0.2259924802032173,0.23109320230480376,0.23826910376573593,0.246185407801443,0.25295951623836566,0.25643636420903104,0.2548240445952726,0.24761602206618719,0.23458719460820274,0.21703087822849812,0.19696775500603184,0.17656876704217891,0.1579345848895723,0.1414587243957755,0.12687251068421246,0.11303041089559547,0.09831348948908523,0.08150663422222539,0.06115508191284655,0.03698047196675811,0.009629608882457483,-0.019493191881456547,-0.04831411957602275,-0.07539016915005967,-0.09947196055563923,-0.12002578767347315,-0.1372998732519983,-0.15200202216630335,-0.16558768565034776,-0.17929608062690777,-0.19398491864336698,-0.2099049502597423,-0.22627635142363842,-0.2425825325348118,-0.25788068220358307,-0.2713490197934743,-0.28251002726748625,-0.2907670008148068,-0.2970963087452543,-0.30254588634476476,-0.3082429077071902,-0.3149986804032472,-0.3225496000757459,-0.3306744163434171,-0.33841240290844293,-0.344463640732219,-0.3474873335390081,-0.34612978304592523,-0.340099078587475,-0.32991678722446993,-0.31684461909054734,-0.3025682392034778,-0.2885369349077534,-0.2762626291229082,-0.2668116764307815,-0.26065493525529526,-0.2576491448679475,-0.25694589403880813,-0.257753163718947,-0.25944560216025125,-0.2616381315286189,-0.26414687549509963,-0.2666460327035292,-0.26900736429432465,-0.27092909286721745,-0.27179886613280657,-0.27064460612225183,-0.2660488204587261,-0.2569133790886866,-0.24253808988334968,-0.2230095717854379,-0.1994520792508453,-0.1739418289885643,-0.14994801393000834,-0.13156462738294555,-0.12307534818400515,-0.12825955237943878,-0.14949812632301884,0.0,0.0,0.0,0.0,0.0,0.0,0.0,0.0,0.0,0.0,0.0,0.0,0.0,0.0,0.0,0.0,0.0,0.0,0.0,0.0,0.0,0.0,0.0,0.0,0.0,0.0,0.0,0.0,0.0,0.0,0.0,0.0,0.0,0.0,0.0,0.0,0.0,0.0,0.0,0.0,0.0,0.0,0.0,0.0,0.0,0.0,0.0,0.0,0.0,0.0,0.0,0.0,0.0,0.0,0.0,0.0,0.0,0.0,0.0,0.0
0.5487190284052307,0.5114745889726258,0.4521941689102711,0.3798186138825773,0.3036982793125477,0.23189795418112766,0.1698600224150742,0.11990093295004937,0.08116031957428255,0.05028678485361255,0.02250152467864715,-0.006850484561626525,-0.0410575199501302,-0.08132219581183626,-0.12656449221583382,-0.17388811638113694,-0.21915812071694465,-0.2579626734170932,-0.28670856978938286,-0.30341576928528025,-0.30819632482336884,-0.30290821910910176,-0.29054550219570857,-0.2745799376608217,-0.25821416492248245,-0.24382776643176296,-0.23265468150707136,-0.22455549263235972,-0.21848274679123142,-0.21301256055968465,-0.20684488337629858,-0.19939265509891813,-0.19051128533206954,-0.18059646920137576,-0.17035354644229422,-0.16036841305005275,-0.1512949672018262,-0.1431370211631773,-0.1354829377007261,-0.1276945323249038,-0.1189523552488301,-0.10919593882514171,-0.09851335755880918,-0.08733933832162714,-0.0762777073622213,-0.06574300066002035,-0.055864554573676506,-0.04637115154492831,-0.03645274931601311,-0.02486088239953879,-0.010224135483270844,0.008912266091149356,0.032824959962459384,0.06080667801305851,0.09125073880739808,0.12207426468730045,0.15093571088023153,0.17559117552559947,0.1945318573603672,0.20736236001433492,0.21518359547110083,0.2195475689833228,0.2225265246873056,0.2259924802032173,0.23109320230480376,0.23826910376573593,0.246185407801443,0.25295951623836566,0.25643636420903104,0.2548240445952726,0.24761602206618719,0.23458719460820274,0.21703087822849812,0.19696775500603184,0.17656876704217891,0.1579345848895723,0.1414587243957755,0.12687251068421246,0.11303041089559547,0.09831348948908523,0.08150663422222539,0.06115508191284655,0.03698047196675811,0.009629608882457483,-0.019493191881456547,-0.04831411957602275,-0.07539016915005967,-0.09947196055563923,-0.12002578767347315,-0.1372998732519983,-0.15200202216630335,-0.16558768565034776,-0.17929608062690777,-0.19398491864336698,-0.2099049502597423,-0.22627635142363842,-0.2425825325348118,-0.25788068220358307,-0.2713490197934743,-0.28251002726748625,-0.2907670008148068,-0.2970963087452543,-0.30254588634476476,-0.3082429077071902,-0.3149986804032472,-0.3225496000757459,-0.3306744163434171,-0.33841240290844293,-0.344463640732219,-0.3474873335390081,-0.34612978304592523,-0.340099078587475,-0.32991678722446993,-0.31684461909054734,-0.3025682392034778,-0.2885369349077534,-0.2762626291229082,-0.2668116764307815,-0.26065493525529526,-0.2576491448679475,-0.25694589403880813,-0.257753163718947,-0.25944560216025125,-0.2616381315286189,-0.26414687549509963,-0.2666460327035292,-0.26900736429432465,-0.27092909286721745,-0.27179886613280657,-0.27064460612225183,-0.2660488204587261,-0.2569133790886866,-0.24253808988334968,-0.2230095717854379,-0.1994520792508453,-0.1739418289885643,-0.14994801393000834,-0.13156462738294555,-0.12307534818400515,-0.12825955237943878,-0.14949812632301884,-0.1877589245860178,-0.24165129193852083,-0.3076075810384734,-0.38025849670203654,-0.4530323667705295,-0.5195166504272483,-0.5739064424474212,-0.6120918373059268,-0.6322574410246343,-0.6350033105751114,-0.6233122271792095,-0.6013621209940966,-0.573870343383036,-0.5452443526262485,-0.5189863413945757,-0.49721595107191285,-0.4803906844985074,-0.4678173923480032,-0.4582312642278627,-0.450582150193498,-0.44396789053334096,-0.4377619073532924,-0.43169815285840213,-0.42574261109210176,-0.42012681260632284,-0.41468076915607877,-0.4088494134230735,-0.4019114538459965,-0.3932539579563409,-0.3828548428171431,-0.37085206465444065,-0.35764875522376816,-0.3438243645615322,-0.329971711848424,-0.31664606978759535,-0.3040426649707934,-0.29186812693848035,-0.2795924836842778,-0.26668946574050706,-0.25285661078493726,-0.2382653610410013,-0.2231582697954483,-0.2079250106414346,-0.19295434862369312,-0.17842097736428422,-0.16438774871141698,-0.15037456358835644,-0.13560614982325855,-0.11921923150687919,-0.10042248338059737,-0.07905462764577609,-0.055323628800560055,-0.02993809019189165,-0.003955140381744811,0.021761025638441824,0.04595289298085481,0.06841072916387149,0.08974342074207751,0.11130895074338958,0.13534315668409083,0.16294551655603434,0.1953760333267293,0.23287525389308436,0.2743172364767291,0.31763281682674993,0.35877309366270493,0.3941395956112437,0.42083063064019144,0.43732552221006876,0.44424590856377644,0.4429158506128305,0.43639184980583695,0.42810848225576265,0.42093994062855455,0.416637047563656,0.41474703522276285,0.41376086672942625,0.41124278759287175,0.40455435904704035,0.3915906222932927,0.3712762542616915,0.3443169985511025,0.31275804733486806,0.279402416967544,0.2472012152197825,0.21802814691241937,0.19300832987471916,0.1720962001287762,0.1542504748880475,0.13815245474418597,0.12175050213018956,0.10379276811160652,0.08380392648846836,0.06215220599884698,0.04017952189754911,0.018921021331350714,-0.00034840985060078576,-0.016738458070308375,-0.029946062890353547,0.0,0.0,0.0,0.0,0.0,0.0,0.0,0.0,0.0,0.0,0.0,0.0,0.0,0.0,0.0,0.0,0.0,0.0,0.0,0.0,0.0,0.0,0.0,0.0,0.0,0.0,0.0,0.0,0.0,0.0,0.0,0.0,0.0,0.0,0.0,0.0,0.0,0.0,0.0,0.0,0.0,0.0,0.0,0.0,0.0,0.0,0.0,0.0,0.0,0.0,0.0,0.0,0.0,0.0,0.0,0.0,0.0,0.0,0.0,0.0
0.24596731108986428,0.21344876024307927,0.16462590749832248,0.1051004470601642,0.041246463981052986,-0.02102920770658453,-0.07621875373278054,-0.12092250549887402,-0.1538434659905119,-0.17572123696037645,-0.18924570511839003,-0.1972789517298352,-0.20304592667486318,-0.20912598763298532,-0.21696770094142942,-0.22709936618677545,-0.23816560250056865,-0.24830063261046592,-0.25549596511100897,-0.2582141649224824,-0.25622684858996914,-0.2495757602689478,-0.2392910647552064,-0.2268627322605886,-0.2138600906414871,-0.20186687694463085,-0.19149590284425408,-0.18287313600955088,-0.17569500884877703,-0.16950601636049176,-0.16410251687397578,-0.15930982157959114,-0.15513906487385223,-0.1516676993686831,-0.14888278436996527,-0.14656655216855924,-0.14422254381892927,-0.14099213230969618,-0.13592694493674676,-0.12825955237943876,-0.11756012169482348,-0.10421286065144832,-0.08893660274723314,-0.07276975068451344,-0.05678451548076474,-0.041731755639751594,-0.027825823293618216,-0.014600343894694001,-0.0009388123902165668,0.014690521417909287,0.03381147890227004,0.0577089571293849,0.08660057830819551,0.11965409263829668,0.15509800496985,0.19069019127033637,0.22394926530712228,0.2529248834979376,0.2766677276716853,0.2955054885217906,0.31123303257890317,0.32587578657583477,0.3418282139595841,0.36083697484089433,0.3833661070019788,0.4085358982598858,0.4334192501027692,0.4544553590293506,0.46800203901615683,0.47122672548216704,0.4630672040653381,0.44374089128744043,0.41554056894610797,0.38197337021626004,0.3469223134844731,0.3139705835410407,0.285039635980528,0.2608161355500291,0.24057938817654484,0.22261790148677915,0.20500633152827938,0.18572312258776774,0.16373077240884792,0.13900217993011738,0.11243899085245954,0.08569302465283705,0.06023459493531342,0.037442261040544926,0.0181008519863007,0.002260080218139889,-0.010567009635605803,-0.021607355471100636,-0.03202199668963627,-0.042741245727063386,-0.054241925235357355,-0.0663624639331238,-0.07873179418766678,-0.09065125687373231,-0.10145432314989206,-0.11074393068885462,-0.1184442715815103,-0.12504861079950377,-0.13129536560532334,-0.13794581999115976,-0.14549266404275543,-0.15393530046280818,-0.16264302925275426,-0.17066861656479287,-0.1768777543923686,-0.18024139739665623,-0.18020068064784117,-0.17648254461582116,-0.16973501546757436,-0.1611197535096297,-0.15199039466990763,-0.14367791780088143,-0.13663556003460955,-0.13115839307444696,-0.1270520583027729,-0.12373939194315899,-0.12065854094182706,-0.11672026750567305,-0.11160874044415812,-0.10542471205006099,-0.0985959995163527,-0.09182921807376629,-0.08546054812634889,-0.08005740285328296,-0.07601155837505832,-0.07345260708954643,-0.07226088738295418,-0.0719444045041845,-0.07211645032087055,-0.07242435483071454,-0.07260507700774396,-0.07249603700389975,-0.07207977496092327,-0.07157834357213347,-0.07134199395795855,-0.07175754692594151,-0.07306940422214543,-0.07552633021321095,-0.07915200885165795,-0.08376462893891654,-0.08899065858925817,-0.0943336548555338,-0.09922731093737756,-0.10309899109354999,-0.10550490762619766,-0.10622377025257483,-0.10541644685463475,-0.10332023562683915,-0.10028193651748085,-0.09669546507574937,-0.09294579897100297,-0.08919251857607736,-0.08590587512459213,-0.08324293837878637,-0.08121282293786417,-0.07966782768943112,-0.07786269743650483,-0.07593738658268377,-0.07370367098452275,-0.07107270933187855,-0.06808491657146419,-0.06456147903387785,-0.061174891238246876,-0.058396770629534,-0.05670751083659918,-0.05650200545349725,-0.057764941766964804,-0.0607764607973142,-0.06537794533988656,-0.07119713116977223,-0.07769025749855873,-0.08404248576923648,-0.08978486603817902,-0.09437605144373451,-0.09744791992466716,-0.0988785095436202,-0.09873750388095204,-0.09757384532075933,-0.09602623167429096,-0.09477719563692893,-0.09435834910734042,-0.09486369851749815,-0.09600183007278687,-0.09672990453850992,-0.09537497934079862,-0.08983818867106061,-0.07790918843411322,-0.05792421576968908,-0.029066059246963614,0.00811302357235309,0.0514168249626825,0.09700131421004952,0.13964135318919216,0.17346757069175545,0.1927245072826401,0.19267183859642567,0.1703806054179935,0.12545573957379239,0.06035923091873009,-0.01980567126696833,-0.10791883041617975,-0.19593219195409164,-0.27573380734961533,-0.3404325272913365,-0.3853264243042083,-0.4085094994287851,-0.41116585567786534,-0.3966627141309574,-0.370035099976468,-0.3369220264267361,-0.3025682392034778,-0.2713063696248792,-0.2452879611616278,-0.22496945929678927,-0.20935486673694478,-0.19662697897817044,-0.18522532668657998,-0.17330942214041772,-0.15987793981781134,-0.14470558068361133,-0.12825955237943876,-0.11182804312288154,-0.09619633141929755,-0.0820958665459037,-0.06994680573741269,-0.05989212578070708,-0.052235309938438744,-0.04657990991332059,-0.04250623577891633,-0.03950075574548341,-0.03700881357204069,-0.03469233038889646,-0.031851898965944266,-0.027831170456884685,-0.0220494257596207,-0.014125501363374314,0.0,0.0,0.0,0.0,0.0,0.0,0.0,0.0,0.0,0.0,0.0,0.0,0.0,0.0,0.0,0.0,0.0,0.0,0.0,0.0,0.0,0.0,0.0,0.0,0.0,0.0,0.0,0.0,0.0,0.0,0.0,0.0,0.0,0.0,0.0,0.0,0.0,0.0,0.0,0.0,0.0,0.0,0.0,0.0,0.0,0.0,0.0,0.0,0.0,0.0,0.0,0.0,0.0,0.0,0.0,0.0,0.0,0.0,0.0,0.0
-0.19593219195409164,-0.27573380734961533,-0.3404325272913365,-0.3853264243042083,-0.4085094994287851,-0.41116585567786534,-0.3966627141309574,-0.370035099976468,-0.3369220264267361,-0.3025682392034778,-0.2713063696248792,-0.2452879611616278,-0.22496945929678927,-0.20935486673694478,-0.19662697897817044,-0.18522532668657998,-0.17330942214041772,-0.15987793981781134,-0.14470558068361133,-0.12825955237943876,-0.11182804312288154,-0.09619633141929755,-0.0820958665459037,-0.06994680573741269,-0.05989212578070708,-0.052235309938438744,-0.04657990991332059,-0.04250623577891633,-0.03950075574548341,-0.03700881357204069,-0.03469233038889646,-0.031851898965944266,-0.027831170456884685,-0.0220494257596207,-0.014125501363374314,-0.0040794573674547314,0.007891821150071724,0.021349966273769214,0.03569714803551959,0.050286784853612564,0.06442757476779302,0.07787847454669869,0.09057139313585542,0.10271099937305284,0.11469907107059943,0.12685977486374994,0.1397856919160117,0.15361442811575182,0.1681798193487503,0.1830664976693311,0.19778478407254416,0.21183588447743928,0.22513673252266755,0.23806092440192056,0.25143392426806277,0.26657739113498957,0.28423929390122515,0.3052566314099072,0.3297973400202628,0.35709267446610266,0.3855958528354735,0.41261269725990557,0.4356437054598451,0.4526896346924701,0.4627514246641425,0.4662409675345884,0.4643929330949185,0.45947818438815163,0.45395404087761637,0.44975596340983814,0.44784284157930915,0.4475724538506809,0.4472547117867179,0.44447510118100625,0.43676050215553375,0.42233090828783687,0.400392937466008,0.37159200672173454,0.33780633356174816,0.3017207091216753,0.2662672518520124,0.23390790972703562,0.20630276042810794,0.18404145927887516,0.16668091608781688,0.15301068138369767,0.14144436960714127,0.1304697941898958,0.11898706584545564,0.10650628027984232,0.09311451819198843,0.07952825164546036,0.0666552499170431,0.0553816321147986,0.046331644471867744,0.03960561289838604,0.03513484605893403,0.032351139464702784,0.030494892676131955,0.028816022781283597,0.026620015305429307,0.023786858260392323,0.020234539508206226,0.01603183448269271,0.011300401090699451,0.005997636089784969,0.0003522511682398649,-0.005755935342746111,-0.012462455438468835,-0.019775701908724044,-0.027651207287898463,-0.03527129145917953,-0.042039673330999866,-0.047376109262167995,-0.05085180490814753,-0.052548525065702095,-0.052207574681864446,-0.050393052610561324,-0.04789600985693601,-0.04548411439006529,-0.04390524184643866,-0.04286558847082122,-0.042183482169686766,-0.04144273371612282,-0.040116423871983053,-0.03795480127655017,-0.03427434951812947,-0.02917608073927518,-0.023099299149331825,-0.016668091608781688,-0.010720786830187002,-0.005354993664166603,-0.0007502382990390664,0.003184764803194706,0.00678024065441967,0.010289951589215252,0.014461440117953075,0.019669672402680707,0.026029378439116155,0.03333618321756338,0.04088119671084256,0.04812313688241154,0.054225521352414326,0.058368961668642465,0.05989212578070709,0.058248525605023256,0.05358760455220491,0.04634069557381094,0.03728253145549147,0.027403472644946168,0.01767869759068422,0.009085022819447838,0.0022800620254286763,-0.0024277217862779445,-0.0050851804908147525,-0.0059879911709599465,-0.0056823141450019835,-0.004749493536711582,-0.0036895235991569525,-0.0028251002726748624,-0.0021704379708542164,-0.0017485707629373557,-0.0014234934304061407,-0.001053476751389155,-0.0005650200545349727,0.00015382356111409175,0.0007930274345824682,0.0010784400522467186,0.0007560229684015614,-0.0002825100272674861,-0.001818872169423021,-0.0034469046623172867,-0.004371893967372742,-0.0035755392137948082,-1.9448124430076696e-19,0.007198658718063337,0.01846499184762777,0.03368191561201782,0.0520848464021234,0.07232256698047648,0.09256237190630813,0.1110761601782044,0.12639283831668396,0.1376287228152079,0.14464513396095297,0.14786872037373597,0.14862566966655874,0.14843113554862283,0.1486882665363598,0.1502953345063027,0.15310334150615365,0.1566150146813523,0.15946153209844757,0.15984916975412725,0.1559455350516524,0.14594901905581945,0.12953104214417463,0.10717362165827653,0.08038239211043785,0.05141682496268249,0.022388548935568284,-0.00392813117841968,-0.02565220026691832,-0.041927824413303526,-0.053111885126287416,-0.061211419287121746,-0.06787146791128253,-0.07501613377217257,-0.08399507963866779,-0.09520587918914286,-0.10853120671847657,-0.12183068501872361,-0.1326212553387547,-0.13839639153079744,-0.1372998732519983,-0.12921004609672337,-0.11421479682667747,-0.09376663986988978,-0.06998930466279554,-0.045201604362797805,-0.02193014279428089,-0.001122680012883673,0.016905755968896197,0.03261340291947205,0.04689666452640273,0.06030239307589554,0.07385019098421038,0.08797840081702747,0.10272340159908315,0.11780668137054177,0.13249338597721114,0.14676505472468585,0.160648217024002,0.17446237181552637,0.18871669821468082,0.2036765930166859,0.21995663254384556,0.23761008174324483,0.25631332890627656,0.2754472765857991,0.0,0.0,0.0,0.0,0.0,0.0,0.0,0.0,0.0,0.0,0.0,0.0,0.0,0.0,0.0,0.0,0.0,0.0,0.0,0.0,0.0,0.0,0.0,0.0,0.0,0.0,0.0,0.0,0.0,0.0,0.0,0.0,0.0,0.0,0.0,0.0,0.0,0.0,0.0,0.0,0.0,0.0,0.0,0.0,0.0,0.0,0.0,0.0,0.0,0.0,0.0,0.0,0.0,0.0,0.0,0.0,0.0,0.0,0.0,0.0
0.6158718594431201,0.6239438135787647,0.6274337023836221,0.6287499175584697,0.6302803867654068,0.6336699911609717,0.6393432972929518,0.6462227954812185,0.6522166136459357,0.6547409882769659,0.6514681228788234,0.6410458033915758,0.6233141371595997,0.5996171092177737,0.5723114561496288,0.5441143125171786,0.5173976438934135,0.4935677257612578,0.47287975188246323,0.4544766643375521,0.43676050215553375,0.41791381535739086,0.3965403657027085,0.3719574113576285,0.3444127987540531,0.3149986804032472,0.2852936196609663,0.2571572701824777,0.23202017110476567,0.21069047295413607,0.1932368586509606,0.17897068286294088,0.16700981956059807,0.15612064935171613,0.1452170903892406,0.133627242897521,0.12106991663444622,0.10818658547342905,0.0956284516015688,0.08407704660471949,0.07401762714408139,0.0653642828670604,0.05821216909205681,0.05192821830331479,0.04573131794440076,0.0389863837629131,0.031151464157977364,0.022991102256188743,0.015160917542616496,0.008528732278686826,0.003955140381744809,0.0016734881753720761,0.002504497538873775,0.006053268097653901,0.011431637061521149,0.017515621690584147,0.022846729870763544,0.027253157342728984,0.030202602036710248,0.0314606726817483,0.03107610299942349,0.028922821492172776,0.02599836395656467,0.022557321386840013,0.01874666904513188,0.014690521417909285,0.010164670862928665,0.0060520983979829145,0.0026190516453035917,3.0112943901811258e-05,-0.0016950601636049171,-0.003134970431359043,-0.003994108520493249,-0.00462273487182613,-0.005380264197913865,-0.006497730627152184,-0.008090520800169226,-0.009695568114635844,-0.011002646071050224,-0.011654761755894126,-0.01130040109069945,-0.009434293478430207,-0.006024835123955725,-0.0013284095997335092,0.004168890035964143,0.00988785095436202,0.015553592630021118,0.02066733597000427,0.024946677514843543,0.02834363409240043,0.031076102999423497,0.03385161062487055,0.037003830200872646,0.04083532094171716,0.04541743572819709,0.050569294880880036,0.05609006452405154,0.061335716565576535,0.06570472480943909,0.06870386825214343,0.07006248676233659,0.06987722728400031,0.06827568585801896,0.06554733210597004,0.06199920919554514,0.057914555589834674,0.0535834179443716,0.049413782467633754,0.046032008845479734,0.044390807077283455,0.04576662441733278,0.05150790102407139,0.0630578017342739,0.08126442536510022,0.10601652773041889,0.1358873231156609,0.16782280021647855,0.19776885054599697,0.22073930742422815,0.23161880017016032,0.22600802181398902,0.2008458164928013,0.1557262287018824,0.0927382331181947,0.016455141209739392,-0.06667236643512676,-0.14960448546342453,-0.22498358209819566,-0.2869718950429719,-0.3320164035793397,-0.3593527546842425,-0.37134010189635536,-0.37167693849269867,-0.3652457243616837,-0.3567548029489178,-0.34974741375714796,-0.3464857446568469,-0.34629592711890306,-0.34711090050715987,-0.3459932079329293,-0.34014207283005343,-0.32840768742997933,-0.3099314935824598,-0.2856498982329624,-0.2575863086076424,-0.22826810203212888,-0.20069588289469303,-0.17590635089227769,-0.15418646952390797,-0.13479719514571661,-0.11639413123420435,-0.09820832700521749,-0.07863376838285319,-0.05704894398551047,-0.03352741418548057,-0.008757810845292077,0.015733142698756895,0.03924627541611713,0.06107441974127156,0.08092138110699547,0.0988785095436202,0.1150201107428692,0.1300654988651562,0.1445394417775688,0.15883817655725097,0.1731786467149691,0.18734880592871136,0.20166779275673782,0.2162723376699234,0.231419595939326,0.24747878388631797,0.26456838524703424,0.2833332265912194,0.3038499611390221,0.3258282641757213,0.34861737364807804,0.3712600817052504,0.3929161363696111,0.41307663097467134,0.4317918984114142,0.44975596340983814,0.46832056706710495,0.48863219219868687,0.51196890864626,0.5389180123507503,0.5689751949167173,0.6005983708937898,0.630870069368403,0.6569434648391708,0.6764610750162724,0.6881944264235965,0.6925879214775463,0.6910297806279309,0.686266372460047,0.6812683896664945,0.6783065754692346,0.6783469185092306,0.6802278004738322,0.6814686419812201,0.6786734956198484,0.6684187245148725,0.6482560940659522,0.6171013812108266,0.5758947267589913,0.5273091549169375,0.4751818658639119,0.4237229694415149,0.37668938132885865,0.33676938546719964,0.30523653983023746,0.2819450072129513,0.26553200823835454,0.2541567832641818,0.24568872362998884,0.2382548679251466,0.23052818225026878,0.22170653088635645,0.2118657348494792,0.2012516824599177,0.1902327001708716,0.1791113572875863,0.16785297984326442,0.1566479106605637,0.14527427921564515,0.13349052456831095,0.1211968016977516,0.10833706755094873,0.09565370746026955,0.08364365281559627,0.07275955742834882,0.06328224610791691,0.05498430060781755,0.048030720907105806,0.0418648512692159,0.03582324272146876,0.02938104283581857,0.022028072824564617,0.01451721754661432,0.007272905759431262,0.0007904336283975253,0.0,0.0,0.0,0.0,0.0,0.0,0.0,0.0,0.0,0.0,0.0,0.0,0.0,0.0,0.0,0.0,0.0,0.0,0.0,0.0,0.0,0.0,0.0,0.0,0.0,0.0,0.0,0.0,0.0,0.0,0.0,0.0,0.0,0.0,0.0,0.0,0.0,0.0,0.0,0.0,0.0,0.0,0.0,0.0,0.0,0.0,0.0,0.0,0.0,0.0,0.0,0.0,0.0,0.0,0.0,0.0,0.0,0.0,0.0,0.0
-0.3320164035793397,-0.3593527546842425,-0.37134010189635536,-0.37167693849269867,-0.3652457243616837,-0.3567548029489178,-0.34974741375714796,-0.3464857446568469,-0.34629592711890306,-0.34711090050715987,-0.3459932079329293,-0.34014207283005343,-0.32840768742997933,-0.3099314935824598,-0.2856498982329624,-0.2575863086076424,-0.22826810203212888,-0.20069588289469303,-0.17590635089227769,-0.15418646952390797,-0.13479719514571661,-0.11639413123420435,-0.09820832700521749,-0.07863376838285319,-0.05704894398551047,-0.03352741418548057,-0.008757810845292077,0.015733142698756895,0.03924627541611713,0.06107441974127156,0.08092138110699547,0.0988785095436202,0.1150201107428692,0.1300654988651562,0.1445394417775688,0.15883817655725097,0.1731786467149691,0.18734880592871136,0.20166779275673782,0.2162723376699234,0.231419595939326,0.24747878388631797,0.26456838524703424,0.2833332265912194,0.3038499611390221,0.3258282641757213,0.34861737364807804,0.3712600817052504,0.3929161363696111,0.41307663097467134,0.4317918984114142,0.44975596340983814,0.46832056706710495,0.48863219219868687,0.51196890864626,0.5389180123507503,0.5689751949167173,0.6005983708937898,0.630870069368403,0.6569434648391708,0.6764610750162724,0.6881944264235965,0.6925879214775463,0.6910297806279309,0.686266372460047,0.6812683896664945,0.6783065754692346,0.6783469185092306,0.6802278004738322,0.6814686419812201,0.6786734956198484,0.6684187245148725,0.6482560940659522,0.6171013812108266,0.5758947267589913,0.5273091549169375,0.4751818658639119,0.4237229694415149,0.37668938132885865,0.33676938546719964,0.30523653983023746,0.2819450072129513,0.26553200823835454,0.2541567832641818,0.24568872362998884,0.2382548679251466,0.23052818225026878,0.22170653088635645,0.2118657348494792,0.2012516824599177,0.1902327001708716,0.1791113572875863,0.16785297984326442,0.1566479106605637,0.14527427921564515,0.13349052456831095,0.1211968016977516,0.10833706755094873,0.09565370746026955,0.08364365281559627,0.07275955742834882,0.06328224610791691,0.05498430060781755,0.048030720907105806,0.0418648512692159,0.03582324272146876,0.02938104283581857,0.022028072824564617,0.01451721754661432,0.007272905759431262,0.0007904336283975253,-0.00452016043627978,-0.008864699097314126,-0.011702041054895758,-0.013559825297871636,-0.015182849756181725,-0.01723311166331666,-0.02043118964408274,-0.02391991388153472,-0.02716879449725821,-0.029436216302033632,-0.029946062890353543,-0.028524859589350957,-0.02422809577458713,-0.017341201282492797,-0.008636020170759118,0.0008475300818024569,0.009751927882138387,0.017716314170789473,0.02415070844064076,0.02877726228686436,0.031641123053958456,0.032872284735026125,0.03322538612959236,0.03315806153653054,0.03302687666889221,0.03305367319029589,0.03318500973682228,0.03360844326309402,0.034144873464763664,0.03452561406667936,0.03446622332663332,0.03364062627877656,0.03209063682951511,0.0297897956057164,0.026833484649368158,0.023448332263201362,0.019899537844677392,0.016706782706528787,0.014239306225570058,0.012769662253719416,0.012430441199769394,0.01314446294533276,0.014808195087256044,0.017125765214219407,0.019741092746871282,0.022318292154131416,0.024504018746456475,0.026345075036877292,0.02800572163162143,0.029819016934715902,0.032206143108493436,0.03538599952773955,0.039807238148284844,0.04564907539567593,0.052841965492980834,0.06102216588977703,0.06948375205149368,0.07741908802245208,0.08394187918635526,0.08826316195753234,0.08983818867106062,0.08854106277911418,0.08449885393194857,0.07825141319609369,0.07059506068233871,0.06243471602611446,0.054681601405799043,0.0479219460887412,0.04246039129272032,0.03826629882806164,0.035031243381168295,0.03234162172843377,0.029659887922065947,0.02654849235258852,0.022771820407446998,0.018363151772386607,0.01368816188419395,0.00920338346893843,0.005435745795137973,0.002841114419916794,0.0016950601636049176,0.002089433033698677,0.0037274887137860703,0.006082111514982371,0.008512066862755362,0.010452871008896992,0.01162259651446754,0.012192620185114512,0.012835254917736728,0.014694447380699123,0.019210681854189064,0.027767411775956072,0.04153807317870805,0.06097596435686546,0.08559389113542928,0.11385154098879696,0.14313112740302913,0.1703673554042835,0.19221671298810897,0.20565797057770765,0.20849240012340486,0.19957138387936352,0.17946996639801277,0.1500464360161687,0.11426432297717695,0.07571268730768631,0.03779892245957286,0.0038919264455739527,-0.0237327786565353,-0.04399741366636766,-0.05706702550803222,-0.06446223824135788,-0.06774475591577926,-0.06885505676602974,-0.06945385822881081,-0.07062750681687156,-0.07320534558003255,-0.07657954173176616,-0.08000315252033331,-0.0826910713009729,-0.0841879881257109,-0.08513267357432013,-0.08564705244078102,-0.08639782848369093,-0.08798732596798801,-0.09068571875286309,-0.0948202205178246,-0.09907024055146534,-0.10192915644457491,0.0,0.0,0.0,0.0,0.0,0.0,0.0,0.0,0.0,0.0,0.0,0.0,0.0,0.0,0.0,0.0,0.0,0.0,0.0,0.0,0.0,0.0,0.0,0.0,0.0,0.0,0.0,0.0,0.0,0.0,0.0,0.0,0.0,0.0,0.0,0.0,0.0,0.0,0.0,0.0,0.0,0.0,0.0,0.0,0.0,0.0,0.0,0.0,0.0,0.0,0.0,0.0,0.0,0.0,0.0,0.0,0.0,0.0,0.0,0.0
0.19957138387936352,0.17946996639801277,0.1500464360161687,0.11426432297717695,0.07571268730768631,0.03779892245957286,0.0038919264455739527,-0.0237327786565353,-0.04399741366636766,-0.05706702550803222,-0.06446223824135788,-0.06774475591577926,-0.06885505676602974,-0.06945385822881081,-0.07062750681687156,-0.07320534558003255,-0.07657954173176616,-0.08000315252033331,-0.0826910713009729,-0.0841879881257109,-0.08513267357432013,-0.08564705244078102,-0.08639782848369093,-0.08798732596798801,-0.09068571875286309,-0.0948202205178246,-0.09907024055146534,-0.10192915644457491,-0.10174489807243878,-0.09718344938001527,-0.08821340482485145,-0.07455549496114326,-0.056978849945425986,-0.03678516804007537,-0.015538051499711747,0.004772401947370154,0.023357361407361162,0.03971306690616467,0.053848312045279435,0.06610734638059179,0.07661168656334351,0.08607558171539823,0.09492433264308629,0.10345892713545539,0.11187397079792455,0.12002469925364466,0.12837763364799917,0.1372285681387524,0.1468973866374504,0.1576405952152573,0.16931140621596244,0.18207554011353172,0.19557366859613384,0.20926960401481237,0.22261790148677915,0.235164597501097,0.24709585539258125,0.2590096074735473,0.27201967870137217,0.287595207758301,0.3072700539146909,0.33215070977242617,0.36263873141713093,0.39809245574304314,0.43676050215553375,0.47609085183649685,0.5129364051426718,0.544517090634806,0.5689910711444383,0.5859257965527666,0.596572619817419,0.6030780372308644,0.6082928966008755,0.6147889401660462,0.6240646502338771,0.6362106528445499,0.6492827987224622,0.6602367951260913,0.6655582442781853,0.6622035039149878,0.648625299867735,0.6246289523216947,0.5919677067231407,0.5537326272700562,0.5136032295722901,0.47507037278534703,0.4405320812732386,0.4110610237412551,0.3863424596489576,0.36500295522959225,0.3450893406951783,0.32489662149823,0.30320259325303406,0.27960883834413947,0.2545415345680051,0.22922608664781666,0.20478376739614895,0.18216879809404704,0.16191115307729223,0.144080113906418,0.12885392513329696,0.11536683395744558,0.10274183593186478,0.0901687516596271,0.07712523744402375,0.06370399943945422,0.05006803829956021,0.036472767739713564,0.023144159333370135,0.010170360981629505,-0.0026018096867181924,-0.015269066686546278,-0.028290056642709165,-0.042079051180411754,-0.05678451548076475,-0.07230240023729098,-0.08758827852455287,-0.10177957730486428,-0.11403186155925073,-0.12373939194315897,-0.13100127953064802,-0.1356413196434563,-0.13859889150512625,-0.14112522739782837,-0.14436262393368549,-0.14921239025228022,-0.1549419808327867,-0.16062138943381885,-0.16464821275077854,-0.16498585592421194,-0.1598439185281786,-0.14701202811579742,-0.12590744378579366,-0.09727895791377125,-0.0632822461079169,-0.02757853967578426,0.00573009876691448,0.03134693105219871,0.04384045960065347,0.03842136370837812,0.011644123764490233,-0.03740757302232907,-0.1073776718437385,-0.19414028125053767,-0.2909853280855108,-0.38931403903428236,-0.47942732639750213,-0.5523122711423769,-0.6007540613459849,-0.6203920198793998,-0.6103394898146084,-0.5731867254722023,-0.5146848424704412,-0.4426345934329143,-0.3655679752841272,-0.2913743647399203,-0.22623917542336633,-0.17398950624153492,-0.13585604928660527,-0.11074393068885462,-0.09582059555004167,-0.08753117416706815,-0.08234107068619231,-0.07744919510245954,-0.07119252687140654,-0.06305647939838388,-0.053732912355665755,-0.044477175176543086,-0.0367205106791201,-0.031641123053958456,-0.02976713433547307,-0.031194989921860906,-0.03526050155666521,-0.040889299624174334,-0.04689666452640272,-0.05219662158864061,-0.05632307221815946,-0.05912613856516906,-0.060879834104687065,-0.06215220599884698,-0.06354148405857342,-0.06575242479981651,-0.06904897219183298,-0.07334463977959599,-0.0782552775530937,-0.08318894927752349,-0.08762946134351944,-0.09110791186934195,-0.0933592487453056,-0.09435834910734041,-0.09429214572930708,-0.09346332363735392,-0.09224739068942464,-0.09097026697836202,-0.08983818867106062,-0.08873973304735662,-0.08791121720985148,-0.0871863987541043,-0.08636811969089374,-0.08531802823478085,-0.08365720018606332,-0.08207102101667192,-0.08060407551354677,-0.079248139798093,-0.0779727675258262,-0.07651395029462807,-0.0752035659693353,-0.07391994449927265,-0.07246637855177056,-0.07062750681687156,-0.06812630627345831,-0.0650409718784963,-0.06143274762989353,-0.05747073483135528,-0.0533943951535549,-0.049361376678972904,-0.045656615485064285,-0.042330478409577654,-0.03925949944592405,-0.03616128349023824,-0.032591030184117006,-0.0282482845673114,-0.022895225069717372,-0.0165071715903249,-0.009322830899827045,-0.0017875607274490499,0.0053573139054123135,0.011366269785903053,0.015572389517178188,0.017515621690584147,0.017061764066915376,0.014321849773282687,0.009769715954495472,0.004086673595263317,-0.0019775701908724026,-0.007706198937434205,-0.012677726767806995,-0.016623232367333103,-0.019504120115160232,-0.021470762072328953,0.0,0.0,0.0,0.0,0.0,0.0,0.0,0.0,0.0,0.0,0.0,0.0,0.0,0.0,0.0,0.0,0.0,0.0,0.0,0.0,0.0,0.0,0.0,0.0,0.0,0.0,0.0,0.0,0.0,0.0,0.0,0.0,0.0,0.0,0.0,0.0,0.0,0.0,0.0,0.0,0.0,0.0,0.0,0.0,0.0,0.0,0.0,0.0,0.0,0.0,0.0,0.0,0.0,0.0,0.0,0.0,0.0,0.0,0.0,0.0
0.5859257965527666,0.596572619817419,0.6030780372308644,0.6082928966008755,0.6147889401660462,0.6240646502338771,0.6362106528445499,0.6492827987224622,0.6602367951260913,0.6655582442781853,0.6622035039149878,0.648625299867735,0.6246289523216947,0.5919677067231407,0.5537326272700562,0.5136032295722901,0.47507037278534703,0.4405320812732386,0.4110610237412551,0.3863424596489576,0.36500295522959225,0.3450893406951783,0.32489662149823,0.30320259325303406,0.27960883834413947,0.2545415345680051,0.22922608664781666,0.20478376739614895,0.18216879809404704,0.16191115307729223,0.144080113906418,0.12885392513329696,0.11536683395744558,0.10274183593186478,0.0901687516596271,0.07712523744402375,0.06370399943945422,0.05006803829956021,0.036472767739713564,0.023144159333370135,0.010170360981629505,-0.0026018096867181924,-0.015269066686546278,-0.028290056642709165,-0.042079051180411754,-0.05678451548076475,-0.07230240023729098,-0.08758827852455287,-0.10177957730486428,-0.11403186155925073,-0.12373939194315897,-0.13100127953064802,-0.1356413196434563,-0.13859889150512625,-0.14112522739782837,-0.14436262393368549,-0.14921239025228022,-0.1549419808327867,-0.16062138943381885,-0.16464821275077854,-0.16498585592421194,-0.1598439185281786,-0.14701202811579742,-0.12590744378579366,-0.09727895791377125,-0.0632822461079169,-0.02757853967578426,0.00573009876691448,0.03134693105219871,0.04384045960065347,0.03842136370837812,0.011644123764490233,-0.03740757302232907,-0.1073776718437385,-0.19414028125053767,-0.2909853280855108,-0.38931403903428236,-0.47942732639750213,-0.5523122711423769,-0.6007540613459849,-0.6203920198793998,-0.6103394898146084,-0.5731867254722023,-0.5146848424704412,-0.4426345934329143,-0.3655679752841272,-0.2913743647399203,-0.22623917542336633,-0.17398950624153492,-0.13585604928660527,-0.11074393068885462,-0.09582059555004167,-0.08753117416706815,-0.08234107068619231,-0.07744919510245954,-0.07119252687140654,-0.06305647939838388,-0.053732912355665755,-0.044477175176543086,-0.0367205106791201,-0.031641123053958456,-0.02976713433547307,-0.031194989921860906,-0.03526050155666521,-0.040889299624174334,-0.04689666452640272,-0.05219662158864061,-0.05632307221815946,-0.05912613856516906,-0.060879834104687065,-0.06215220599884698,-0.06354148405857342,-0.06575242479981651,-0.06904897219183298,-0.07334463977959599,-0.0782552775530937,-0.08318894927752349,-0.08762946134351944,-0.09110791186934195,-0.0933592487453056,-0.09435834910734041,-0.09429214572930708,-0.09346332363735392,-0.09224739068942464,-0.09097026697836202,-0.08983818867106062,-0.08873973304735662,-0.08791121720985148,-0.0871863987541043,-0.08636811969089374,-0.08531802823478085,-0.08365720018606332,-0.08207102101667192,-0.08060407551354677,-0.079248139798093,-0.0779727675258262,-0.07651395029462807,-0.0752035659693353,-0.07391994449927265,-0.07246637855177056,-0.07062750681687156,-0.06812630627345831,-0.0650409718784963,-0.06143274762989353,-0.05747073483135528,-0.0533943951535549,-0.049361376678972904,-0.045656615485064285,-0.042330478409577654,-0.03925949944592405,-0.03616128349023824,-0.032591030184117006,-0.0282482845673114,-0.022895225069717372,-0.0165071715903249,-0.009322830899827045,-0.0017875607274490499,0.0053573139054123135,0.011366269785903053,0.015572389517178188,0.017515621690584147,0.017061764066915376,0.014321849773282687,0.009769715954495472,0.004086673595263317,-0.0019775701908724026,-0.007706198937434205,-0.012677726767806995,-0.016623232367333103,-0.019504120115160232,-0.021470762072328953,-0.022735370994017328,-0.02367630485168128,-0.024515282082678776,-0.02537193869237199,-0.026273432535876225,-0.027187862384836784,-0.028128156213520404,-0.029061077732366252,-0.03000965726551373,-0.03107610299942349,-0.03247009081004876,-0.03437646529760084,-0.036863625731679006,-0.0398744333272082,-0.0432240341719254,-0.046992348610189555,-0.05054906299788413,-0.053360561069833654,-0.05500838006983118,-0.05537196534442731,-0.05541046606480183,-0.0551362898343014,-0.054906556487494845,-0.05496285013307565,-0.05537196534442731,-0.056737929488617,-0.058153286066758264,-0.0588526245924698,-0.05808142422510911,-0.05537196534442731,-0.0514801622490315,-0.046202845606117586,-0.039894609988621564,-0.03294558493046859,-0.025708412481341248,-0.01892144552204181,-0.012456685352588233,-0.0063732160331798834,-0.0008016222674779454,0.003955140381744808,0.007289373348591107,0.008779859806032086,0.008088757225182876,0.005257678196462455,0.0008475300818024585,-0.004064353689001176,-0.008062796345366956,-0.009706072398219082,-0.007906158853992236,-0.00226008021813989,0.006784237233999834,0.017937622391425077,0.02942560315057395,0.03947099484012318,0.04689666452640273,0.05170205837572849,0.05538127379539881,0.06103597146829671,0.07299297459320261,0.09605340927094533,0.13447691258751573,0.1908106653295965,0.26504477969152307,0.354104961739531,0.452016043627978,0.5507891281950218,0.6417792839577315,0.7175188931422354,0.7732580512190497,0.0,0.0,0.0,0.0,0.0,0.0,0.0,0.0,0.0,0.0,0.0,0.0,0.0,0.0,0.0,0.0,0.0,0.0,0.0,0.0,0.0,0.0,0.0,0.0,0.0,0.0,0.0,0.0,0.0,0.0,0.0,0.0,0.0,0.0,0.0,0.0,0.0,0.0,0.0,0.0,0.0,0.0,0.0,0.0,0.0,0.0,0.0,0.0,0.0,0.0,0.0,0.0,0.0,0.0,0.0,0.0,0.0,0.0,0.0,0.0
-0.47942732639750213,-0.5523122711423769,-0.6007540613459849,-0.6203920198793998,-0.6103394898146084,-0.5731867254722023,-0.5146848424704412,-0.4426345934329143,-0.3655679752841272,-0.2913743647399203,-0.22623917542336633,-0.17398950624153492,-0.13585604928660527,-0.11074393068885462,-0.09582059555004167,-0.08753117416706815,-0.08234107068619231,-0.07744919510245954,-0.07119252687140654,-0.06305647939838388,-0.053732912355665755,-0.044477175176543086,-0.0367205106791201,-0.031641123053958456,-0.02976713433547307,-0.031194989921860906,-0.03526050155666521,-0.040889299624174334,-0.04689666452640272,-0.05219662158864061,-0.05632307221815946,-0.05912613856516906,-0.060879834104687065,-0.06215220599884698,-0.06354148405857342,-0.06575242479981651,-0.06904897219183298,-0.07334463977959599,-0.0782552775530937,-0.08318894927752349,-0.08762946134351944,-0.09110791186934195,-0.0933592487453056,-0.09435834910734041,-0.09429214572930708,-0.09346332363735392,-0.09224739068942464,-0.09097026697836202,-0.08983818867106062,-0.08873973304735662,-0.08791121720985148,-0.0871863987541043,-0.08636811969089374,-0.08531802823478085,-0.08365720018606332,-0.08207102101667192,-0.08060407551354677,-0.079248139798093,-0.0779727675258262,-0.07651395029462807,-0.0752035659693353,-0.07391994449927265,-0.07246637855177056,-0.07062750681687156,-0.06812630627345831,-0.0650409718784963,-0.06143274762989353,-0.05747073483135528,-0.0533943951535549,-0.049361376678972904,-0.045656615485064285,-0.042330478409577654,-0.03925949944592405,-0.03616128349023824,-0.032591030184117006,-0.0282482845673114,-0.022895225069717372,-0.0165071715903249,-0.009322830899827045,-0.0017875607274490499,0.0053573139054123135,0.011366269785903053,0.015572389517178188,0.017515621690584147,0.017061764066915376,0.014321849773282687,0.009769715954495472,0.004086673595263317,-0.0019775701908724026,-0.007706198937434205,-0.012677726767806995,-0.016623232367333103,-0.019504120115160232,-0.021470762072328953,-0.022735370994017328,-0.02367630485168128,-0.024515282082678776,-0.02537193869237199,-0.026273432535876225,-0.027187862384836784,-0.028128156213520404,-0.029061077732366252,-0.03000965726551373,-0.03107610299942349,-0.03247009081004876,-0.03437646529760084,-0.036863625731679006,-0.0398744333272082,-0.0432240341719254,-0.046992348610189555,-0.05054906299788413,-0.053360561069833654,-0.05500838006983118,-0.05537196534442731,-0.05541046606480183,-0.0551362898343014,-0.054906556487494845,-0.05496285013307565,-0.05537196534442731,-0.056737929488617,-0.058153286066758264,-0.0588526245924698,-0.05808142422510911,-0.05537196534442731,-0.0514801622490315,-0.046202845606117586,-0.039894609988621564,-0.03294558493046859,-0.025708412481341248,-0.01892144552204181,-0.012456685352588233,-0.0063732160331798834,-0.0008016222674779454,0.003955140381744808,0.007289373348591107,0.008779859806032086,0.008088757225182876,0.005257678196462455,0.0008475300818024585,-0.004064353689001176,-0.008062796345366956,-0.009706072398219082,-0.007906158853992236,-0.00226008021813989,0.006784237233999834,0.017937622391425077,0.02942560315057395,0.03947099484012318,0.04689666452640273,0.05170205837572849,0.05538127379539881,0.06103597146829671,0.07299297459320261,0.09605340927094533,0.13447691258751573,0.1908106653295965,0.26504477969152307,0.354104961739531,0.452016043627978,0.5507891281950218,0.6417792839577315,0.7175188931422354,0.7732580512190497,0.8079786779850107,0.8245612292208145,0.8288424535015393,0.8281250766773482,0.8290964770272902,0.8359471706844918,0.8491948378250377,0.8653944042023648,0.8781827127977273,0.8799529182858561,0.863915663383973,0.8259489944813199,0.7655762588439428,0.686197451008546,0.5941584455488464,0.49721764799077584,0.40285294002090477,0.31681453688866357,0.24244329160143302,0.18064809217964936,0.13051963259757865,0.0902514743595709,0.05802823891046811,0.03257672561252724,0.01329483342883471,0.0,0.0,0.0,0.0,0.0,0.0,0.0,0.0,0.0,0.0,0.0,0.0,0.0,0.0,0.0,0.0,0.0,0.0,0.0,0.0,0.0,0.0,0.0,0.0,0.0,0.0,0.0,0.0,0.0,0.0,0.0,0.0,0.0,0.0,0.0,0.0,0.0,0.0,0.0,0.0,0.0,0.0,0.0,0.0,0.0,0.0,0.0,0.0,0.0,0.0,0.0,0.0,0.0,0.0,0.0,0.0,0.0,0.0,0.0,0.0,0.0,0.0,0.0,0.0,0.0,0.0,0.0,0.0,0.0,0.0,0.0,0.0,0.0,0.0,0.0,0.0,0.0,0.0,0.0,0.0,0.0,0.0,0.0,0.0,0.0,0.0,0.0,0.0,0.0,0.0,0.0,0.0,0.0,0.0,0.0,0.0,0.0,0.0,0.0,0.0,0.0,0.0,0.0,0.0,0.0,0.0,0.0,0.0,0.0,0.0,0.0,0.0
0.26504477969152307,0.354104961739531,0.452016043627978,0.5507891281950218,0.6417792839577315,0.7175188931422354,0.7732580512190497,0.8079786779850107,0.8245612292208145,0.8288424535015393,0.8281250766773482,0.8290964770272902,0.8359471706844918,0.8491948378250377,0.8653944042023648,0.8781827127977273,0.8799529182858561,0.863915663383973,0.8259489944813199,0.7655762588439428,0.686197451008546,0.5941584455488464,0.49721764799077584,0.40285294002090477,0.31681453688866357,0.24244329160143302,0.18064809217964936,0.13051963259757865,0.0902514743595709,0.05802823891046811,0.03257672561252724,0.01329483342883471,0.0,0.0,0.0,0.0,0.0,0.0,0.0,0.0,0.0,0.0,0.0,0.0,0.0,0.0,0.0,0.0,0.0,0.0,0.0,0.0,0.0,0.0,0.0,0.0,0.0,0.0,0.0,0.0,0.0,0.0,0.0,0.0,0.0,0.0,0.0,0.0,0.0,0.0,0.0,0.0,0.0,0.0,0.0,0.0,0.0,0.0,0.0,0.0,0.0,0.0,0.0,0.0,0.0,0.0,0.0,0.0,0.0,0.0,0.0,0.0,0.0,0.0,0.0,0.0,0.0,0.0,0.0,0.0,0.0,0.0,0.0,0.0,0.0,0.0,0.0,0.0,0.0,0.0,0.0,0.0,0.0,0.0,0.0,0.0,0.0,0.0,0.0,0.0,0.0,0.0,0.0,0.0,0.0,0.0,0.0,0.0,0.0,0.0,0.0,0.0,0.0,0.0,0.0,0.0,0.0,0.0,0.0,0.0,0.0,0.0,0.0,0.0,0.0,0.0,0.0,0.0,0.0,0.0,0.0,0.0,0.0,0.0,0.0,0.0,0.0,0.0,0.0,0.0,0.0,0.0,0.0,0.0,0.0,0.0,0.0,0.0,0.0,0.0,0.0,0.0,0.0,0.0,0.0,0.0,0.0,0.0,0.0,0.0,0.0,0.0,0.0,0.0,0.0,0.0,0.0,0.0,0.0,0.0,0.0,0.0,0.0,0.0,0.0,0.0,0.0,0.0,0.0,0.0,0.0,0.0,0.0,0.0,0.0,0.0,0.0,0.0,0.0,0.0,0.0,0.0,0.0,0.0,0.0,0.0,0.0,0.0,0.0,0.0,0.0,0.0,0.0,0.0,0.0,0.0,0.0,0.0,0.0,0.0,0.0,0.0,0.0,0.0,0.0,0.0,0.0,0.0,0.0,0.0,0.0,0.0,0.0,0.0,0.0,0.0,0.0,0.0,0.0,0.0,0.0,0.0,0.0,0.0,0.0,0.0,0.0,0.0,0.0,0.0,0.0,0.0,0.0,0.0,0.0,0.0,0.0,0.0,0.0,0.0,0.0,0.0,0.0,0.0,0.0,0.0,0.0,0.0,0.0,0.0,0.0,0.0,0.0,0.0,0.0,0.0,0.0,0.0,0.0,0.0,0.0,0.0,0.0,0.0,0.0,0.0,0.0,0.0,0.0,0.0
0.16859868431850897,0.1441314053771675,0.11797090865282875,0.09112122999675955,0.06523916910703556,0.041758594756463624,0.021606860676833418,0.004946369335548376,-0.009303910724135547,-0.02191987760478837,-0.034135022223272235,-0.04694973349194224,-0.06084034282724501,-0.07610063674225515,-0.0914890696847069,-0.10576419075512707,-0.11772746539347527,-0.1266270549900384,-0.1329044800970908,-0.1367049197558068,-0.13907277134212434,-0.14118049901212856,-0.1439393476644577,-0.14815462497212675,-0.1529576322503024,-0.15745167556030554,-0.16053224411003186,-0.16125164033887704,-0.15953915283413161,-0.15493051402608574,-0.14814085059753276,-0.14024778375793007,-0.13231537972591906,-0.12540646005505549,-0.11922784843288418,-0.11365796018876176,-0.10843154701443664,-0.10337911911296105,-0.09888795974905581,-0.0949861365014501,-0.09252025001780718,-0.09232413140000659,-0.09472297277575137,-0.09922061480128547,-0.10371000976273284,-0.10536366909722528,-0.100677548592059,-0.08606682643854174,-0.058623277999298604,-0.016742208786224483,0.0389832993828943,0.10574501958282075,0.17881125148007376,0.25227131270916003,0.3199612976409182,0.37646546612562354,0.4181307866672506,0.44368932939868927,0.4544637015820704,0.4536994159505068,0.44588732242890394,0.0,0.0,0.0,0.0,0.0,0.0,0.0,0.0,0.0,0.0,0.0,0.0,0.0,0.0,0.0,0.0,0.0,0.0,0.0,0.0,0.0,0.0,0.0,0.0,0.0,0.0,0.0,0.0,0.0,0.0,0.0,0.0,0.0,0.0,0.0,0.0,0.0,0.0,0.0,0.0,0.0,0.0,0.0,0.0,0.0,0.0,0.0,0.0,0.0,0.0,0.0,0.0,0.0,0.0,0.0,0.0,0.0,0.0,0.0,0.0,0.0,0.0,0.0,0.0,0.0,0.0,0.0,0.0,0.0,0.0,0.0,0.0,0.0,0.0,0.0,0.0,0.0,0.0,0.0,0.0,0.0,0.0,0.0,0.0,0.0,0.0,0.0,0.0,0.0,0.0,0.0,0.0,0.0,0.0,0.0,0.0,0.0,0.0,0.0,0.0,0.0,0.0,0.0,0.0,0.0,0.0,0.0,0.0,0.0,0.0,0.0,0.0,0.0,0.0,0.0,0.0,0.0,0.0,0.0,0.0,0.0,0.0,0.0,0.0,0.0,0.0,0.0,0.0,0.0,0.0,0.0,0.0,0.0,0.0,0.0,0.0,0.0,0.0,0.0,0.0,0.0,0.0,0.0,0.0,0.0,0.0,0.0,0.0,0.0,0.0,0.0,0.0,0.0,0.0,0.0,0.0,0.0,0.0,0.0,0.0,0.0,0.0,0.0,0.0,0.0,0.0,0.0,0.0,0.0,0.0,0.0,0.0,0.0,0.0,0.0,0.0,0.0,0.0,0.0,0.0,0.0,0.0,0.0,0.0,0.0,0.0,0.0,0.0,0.0,0.0,0.0,0.0,0.0,0.0,0.0,0.0,0.0,0.0,0.0,0.0,0.0,0.0,0.0,0.0,0.0,0.0,0.0,0.0,0.0,0.0,0.0,0.0,0.0,0.0,0.0,0.0,0.0,0.0,0.0,0.0,0.0,0.0,0.0,0.0,0.0,0.0,0.0,0.0,0.0,0.0,0.0,0.0,0.0,0.0,0.0,0.0,0.0,0.0,0.0
0.3199612976409182,0.37646546612562354,0.4181307866672506,0.44368932939868927,0.4544637015820704,0.4536994159505068,0.44588732242890394,0.4356349212596251,0.4266243551910474,0.420910051024185,0.4184694051832075,0.41762493137398593,0.4156318459751041,0.4095593809834055,0.3971680163555547,0.377452032672316,0.3510686570928611,0.32003189569964613,0.2871367399285832,0.2552468413211575,0.22647252329484166,0.2019789940533428,0.1817396060254195,0.1647140988737609,0.14931668755815222,0.13375928378318727,0.11685887495451666,0.09819808068992189,0.07815263550166432,0.057784354039175326,0.038141541564588106,0.02027385708485633,0.004770274356354617,-0.008408827870432236,-0.019746399185278634,-0.030449903018818704,-0.041625940766605925,-0.05407455285859995,-0.06801257836379015,-0.08276119265882796,-0.09744517427852913,-0.11067374088051826,-0.12106670076336513,-0.12761632885714808,-0.12971846274706264,-0.12801555812704637,-0.1236339375910793,-0.11807100787377285,-0.11277722085050296,-0.10862675740739196,-0.10586423020606738,-0.10400825973082899,-0.1018921022567882,-0.09793811284385782,-0.09058417674736215,-0.078478296737413,-0.061493801111181697,-0.04052696959072056,-0.017312292674419322,0.0059473014201741415,0.02724133920344047,0.0,0.0,0.0,0.0,0.0,0.0,0.0,0.0,0.0,0.0,0.0,0.0,0.0,0.0,0.0,0.0,0.0,0.0,0.0,0.0,0.0,0.0,0.0,0.0,0.0,0.0,0.0,0.0,0.0,0.0,0.0,0.0,0.0,0.0,0.0,0.0,0.0,0.0,0.0,0.0,0.0,0.0,0.0,0.0,0.0,0.0,0.0,0.0,0.0,0.0,0.0,0.0,0.0,0.0,0.0,0.0,0.0,0.0,0.0,0.0,0.0,0.0,0.0,0.0,0.0,0.0,0.0,0.0,0.0,0.0,0.0,0.0,0.0,0.0,0.0,0.0,0.0,0.0,0.0,0.0,0.0,0.0,0.0,0.0,0.0,0.0,0.0,0.0,0.0,0.0,0.0,0.0,0.0,0.0,0.0,0.0,0.0,0.0,0.0,0.0,0.0,0.0,0.0,0.0,0.0,0.0,0.0,0.0,0.0,0.0,0.0,0.0,0.0,0.0,0.0,0.0,0.0,0.0,0.0,0.0,0.0,0.0,0.0,0.0,0.0,0.0,0.0,0.0,0.0,0.0,0.0,0.0,0.0,0.0,0.0,0.0,0.0,0.0,0.0,0.0,0.0,0.0,0.0,0.0,0.0,0.0,0.0,0.0,0.0,0.0,0.0,0.0,0.0,0.0,0.0,0.0,0.0,0.0,0.0,0.0,0.0,0.0,0.0,0.0,0.0,0.0,0.0,0.0,0.0,0.0,0.0,0.0,0.0,0.0,0.0,0.0,0.0,0.0,0.0,0.0,0.0,0.0,0.0,0.0,0.0,0.0,0.0,0.0,0.0,0.0,0.0,0.0,0.0,0.0,0.0,0.0,0.0,0.0,0.0,0.0,0.0,0.0,0.0,0.0,0.0,0.0,0.0,0.0,0.0,0.0,0.0,0.0,0.0,0.0,0.0,0.0,0.0,0.0,0.0,0.0,0.0,0.0,0.0,0.0,0.0,0.0,0.0,0.0,0.0,0.0,0.0,0.0,0.0,0.0,0.0,0.0,0.0,0.0,0.0
0.4270425610034767,0.49246765348952604,0.5376022088279404,0.5594343718505213,0.5588388160468266,0.539327402720551,0.5071292814116728,0.4693999232691919,0.4325599983937054,0.4011457395988727,0.37596407092942213,0.35493298018741715,0.33345346004922666,0.30568562493688956,0.2663854647532466,0.21151964740359122,0.14021547788825336,0.0548888172773429,-0.03907631775083217,-0.1340806771169075,-0.22228052787171476,-0.2963814759656213,-0.35107581148687456,-0.38383826043855396,-0.3950317717958234,-0.38794525718355055,-0.36759328393221985,-0.33979766034353004,-0.31013735733888315,-0.28303823060183,-0.26152749094370237,-0.2468485775175762,-0.23884005957392632,-0.23643645423921236,-0.23819974860707796,-0.24286077182022528,-0.24935792937966642,-0.2569547696105756,-0.2651253963853929,-0.2733638744972723,-0.2811172836611467,-0.28762199510113273,-0.292070143658804,-0.2938143385315735,-0.2925662499144895,-0.2885607532290449,-0.2824608052526487,-0.27522331117136367,-0.26784589951994453,-0.26121506924677224,-0.2554779196657006,-0.25061041102865383,-0.24625498061446605,-0.24187746050831554,-0.2372009270288797,-0.23145367969764646,-0.22476578190857058,-0.21758880230409908,-0.21046801522758338,-0.20396664712084542,-0.19782256549109795,0.0,0.0,0.0,0.0,0.0,0.0,0.0,0.0,0.0,0.0,0.0,0.0,0.0,0.0,0.0,0.0,0.0,0.0,0.0,0.0,0.0,0.0,0.0,0.0,0.0,0.0,0.0,0.0,0.0,0.0,0.0,0.0,0.0,0.0,0.0,0.0,0.0,0.0,0.0,0.0,0.0,0.0,0.0,0.0,0.0,0.0,0.0,0.0,0.0,0.0,0.0,0.0,0.0,0.0,0.0,0.0,0.0,0.0,0.0,0.0,0.0,0.0,0.0,0.0,0.0,0.0,0.0,0.0,0.0,0.0,0.0,0.0,0.0,0.0,0.0,0.0,0.0,0.0,0.0,0.0,0.0,0.0,0.0,0.0,0.0,0.0,0.0,0.0,0.0,0.0,0.0,0.0,0.0,0.0,0.0,0.0,0.0,0.0,0.0,0.0,0.0,0.0,0.0,0.0,0.0,0.0,0.0,0.0,0.0,0.0,0.0,0.0,0.0,0.0,0.0,0.0,0.0,0.0,0.0,0.0,0.0,0.0,0.0,0.0,0.0,0.0,0.0,0.0,0.0,0.0,0.0,0.0,0.0,0.0,0.0,0.0,0.0,0.0,0.0,0.0,0.0,0.0,0.0,0.0,0.0,0.0,0.0,0.0,0.0,0.0,0.0,0.0,0.0,0.0,0.0,0.0,0.0,0.0,0.0,0.0,0.0,0.0,0.0,0.0,0.0,0.0,0.0,0.0,0.0,0.0,0.0,0.0,0.0,0.0,0.0,0.0,0.0,0.0,0.0,0.0,0.0,0.0,0.0,0.0,0.0,0.0,0.0,0.0,0.0,0.0,0.0,0.0,0.0,0.0,0.0,0.0,0.0,0.0,0.0,0.0,0.0,0.0,0.0,0.0,0.0,0.0,0.0,0.0,0.0,0.0,0.0,0.0,0.0,0.0,0.0,0.0,0.0,0.0,0.0,0.0,0.0,0.0,0.0,0.0,0.0,0.0,0.0,0.0,0.0,0.0,0.0,0.0,0.0,0.0,0.0,0.0,0.0,0.0,0.0
0.5417686463637268,0.5891567223178138,0.6158229822757727,0.6231737008987317,0.6153433555641568,0.5985003946345306,0.5791801278649685,0.5626495119186278,0.5516979300325898,0.5455935658037065,0.5406024357636758,0.5307854184977215,0.5094760415614826,0.4710525818237409,0.4121279130242337,0.33287858157579897,0.23713499139428468,0.13182074279236422,0.025769980940605047,-0.07185232313010137,-0.15293167713064473,-0.21176380197318678,-0.24583455597675424,-0.25605878349024935,-0.24611848697794506,-0.22157584810880326,-0.1887884152090631,-0.15383208633555448,-0.12174880097616816,-0.0957998990050426,-0.07741332366796196,-0.06647286819181497,-0.06182961669435468,-0.06198968387114698,-0.0653132067015233,-0.07039740602204313,-0.07621718157762379,-0.08210973097010303,-0.08778414394442781,-0.09289788616977068,-0.09716365324979,-0.1003529990438004,-0.10238984524585137,-0.10354878145676569,-0.1041378445952841,-0.10467192421055198,-0.10564401231760683,-0.10733621458139975,-0.10988611466905097,-0.11246412898820964,-0.11428520091558142,-0.11447138785810976,-0.11228258391694812,-0.10765966785538549,-0.1001464406542534,-0.09047817301315553,-0.07979033291910115,-0.06924917069767726,-0.05996718451392588,-0.05163466478238906,-0.043882261715337614,0.0,0.0,0.0,0.0,0.0,0.0,0.0,0.0,0.0,0.0,0.0,0.0,0.0,0.0,0.0,0.0,0.0,0.0,0.0,0.0,0.0,0.0,0.0,0.0,0.0,0.0,0.0,0.0,0.0,0.0,0.0,0.0,0.0,0.0,0.0,0.0,0.0,0.0,0.0,0.0,0.0,0.0,0.0,0.0,0.0,0.0,0.0,0.0,0.0,0.0,0.0,0.0,0.0,0.0,0.0,0.0,0.0,0.0,0.0,0.0,0.0,0.0,0.0,0.0,0.0,0.0,0.0,0.0,0.0,0.0,0.0,0.0,0.0,0.0,0.0,0.0,0.0,0.0,0.0,0.0,0.0,0.0,0.0,0.0,0.0,0.0,0.0,0.0,0.0,0.0,0.0,0.0,0.0,0.0,0.0,0.0,0.0,0.0,0.0,0.0,0.0,0.0,0.0,0.0,0.0,0.0,0.0,0.0,0.0,0.0,0.0,0.0,0.0,0.0,0.0,0.0,0.0,0.0,0.0,0.0,0.0,0.0,0.0,0.0,0.0,0.0,0.0,0.0,0.0,0.0,0.0,0.0,0.0,0.0,0.0,0.0,0.0,0.0,0.0,0.0,0.0,0.0,0.0,0.0,0.0,0.0,0.0,0.0,0.0,0.0,0.0,0.0,0.0,0.0,0.0,0.0,0.0,0.0,0.0,0.0,0.0,0.0,0.0,0.0,0.0,0.0,0.0,0.0,0.0,0.0,0.0,0.0,0.0,0.0,0.0,0.0,0.0,0.0,0.0,0.0,0.0,0.0,0.0,0.0,0.0,0.0,0.0,0.0,0.0,0.0,0.0,0.0,0.0,0.0,0.0,0.0,0.0,0.0,0.0,0.0,0.0,0.0,0.0,0.0,0.0,0.0,0.0,0.0,0.0,0.0,0.0,0.0,0.0,0.0,0.0,0.0,0.0,0.0,0.0,0.0,0.0,0.0,0.0,0.0,0.0,0.0,0.0,0.0,0.0,0.0,0.0,0.0,0.0,0.0,0.0,0.0,0.0,0.0,0.0
0.5912346758146253,0.624231810146205,0.642804141540799,0.6520298543050828,0.6581170980978663,0.6666167046533684,0.6808677390382338,0.7011187229346537,0.7237917210906372,0.742563333595419,0.7496268506676751,0.7375036679302628,0.7010338821610101,0.6381400927263333,0.5509567583847079,0.4454509275489915,0.3304174716146314,0.21614241934474593,0.11212121032240942,0.02604919221394288,-0.03734088476554281,-0.07666872470099982,-0.09348386591984297,-0.09210627508366764,-0.07812412566500788,-0.057446538198184835,-0.03536654074917089,-0.015743496164639038,-0.0012539591543694634,0.0070083021049655286,0.00912289219684159,0.005935643202658049,-0.0011926038885687253,-0.011216551701865116,-0.023182614938444725,-0.03637085608323863,-0.050205648755816006,-0.06398002517890648,-0.07717959064356002,-0.08910776580329233,-0.09903956558439947,-0.10634694071429006,-0.11052876151286375,-0.11168473675376075,-0.11026596083781588,-0.10707990626503011,-0.10313180064618362,-0.09951263713043351,-0.09684349021210033,-0.09579018932393861,-0.096764318486685,-0.09991666057807719,-0.10546688884591064,-0.11264271554594114,-0.12125122677336486,-0.13106573359475743,-0.14171348146346097,-0.1529083163726701,-0.1632779242084205,-0.17212996934736602,-0.1789580650444796,0.0,0.0,0.0,0.0,0.0,0.0,0.0,0.0,0.0,0.0,0.0,0.0,0.0,0.0,0.0,0.0,0.0,0.0,0.0,0.0,0.0,0.0,0.0,0.0,0.0,0.0,0.0,0.0,0.0,0.0,0.0,0.0,0.0,0.0,0.0,0.0,0.0,0.0,0.0,0.0,0.0,0.0,0.0,0.0,0.0,0.0,0.0,0.0,0.0,0.0,0.0,0.0,0.0,0.0,0.0,0.0,0.0,0.0,0.0,0.0,0.0,0.0,0.0,0.0,0.0,0.0,0.0,0.0,0.0,0.0,0.0,0.0,0.0,0.0,0.0,0.0,0.0,0.0,0.0,0.0,0.0,0.0,0.0,0.0,0.0,0.0,0.0,0.0,0.0,0.0,0.0,0.0,0.0,0.0,0.0,0.0,0.0,0.0,0.0,0.0,0.0,0.0,0.0,0.0,0.0,0.0,0.0,0.0,0.0,0.0,0.0,0.0,0.0,0.0,0.0,0.0,0.0,0.0,0.0,0.0,0.0,0.0,0.0,0.0,0.0,0.0,0.0,0.0,0.0,0.0,0.0,0.0,0.0,0.0,0.0,0.0,0.0,0.0,0.0,0.0,0.0,0.0,0.0,0.0,0.0,0.0,0.0,0.0,0.0,0.0,0.0,0.0,0.0,0.0,0.0,0.0,0.0,0.0,0.0,0.0,0.0,0.0,0.0,0.0,0.0,0.0,0.0,0.0,0.0,0.0,0.0,0.0,0.0,0.0,0.0,0.0,0.0,0.0,0.0,0.0,0.0,0.0,0.0,0.0,0.0,0.0,0.0,0.0,0.0,0.0,0.0,0.0,0.0,0.0,0.0,0.0,0.0,0.0,0.0,0.0,0.0,0.0,0.0,0.0,0.0,0.0,0.0,0.0,0.0,0.0,0.0,0.0,0.0,0.0,0.0,0.0,0.0,0.0,0.0,0.0,0.0,0.0,0.0,0.0,0.0,0.0,0.0,0.0,0.0,0.0,0.0,0.0,0.0,0.0,0.0,0.0,0.0,0.0,0.0
0.6287060273392738,0.6534153892259404,0.6474695636532672,0.6144658869799198,0.5611631222564801,0.4961335919266678,0.42810826599171187,0.3642351136466901,0.30938808773236426,0.2653324020217206,0.23091680841936685,0.20280114275748337,0.17633871305014742,0.14753488234524265,0.11366875312686422,0.07401702226090592,0.02992553448006767,-0.015922911206857335,-0.05948742719896918,-0.09687494313198736,-0.12514223147671946,-0.14295007379734803,-0.1511234031782946,-0.15146653768833096,-0.14680118421726493,-0.1400966825202052,-0.13379929052658354,-0.12963380957250836,-0.12770831895346482,-0.12718978132511427,-0.12665027608524898,-0.12464850725581905,-0.12042969905060698,-0.11367903046940338,-0.10489507185981616,-0.0950730731013117,-0.08532487103820947,-0.076582076964016,-0.06902485911611303,-0.06214637585593134,-0.05489088529327822,-0.04600123482059989,-0.034451962911408035,-0.019771795189938508,-0.0021494572003563886,0.01756365966761755,0.03808704388372249,0.05791822389227024,0.07632289418210281,0.09286820465305162,0.10783917759616687,0.12217532258804488,0.13689692095806255,0.15386991989692617,0.17378579826848714,0.19651101816792416,0.2211027092990124,0.24588171253320026,0.2694545141016419,0.2902058896418677,0.30710557424937435,0.0,0.0,0.0,0.0,0.0,0.0,0.0,0.0,0.0,0.0,0.0,0.0,0.0,0.0,0.0,0.0,0.0,0.0,0.0,0.0,0.0,0.0,0.0,0.0,0.0,0.0,0.0,0.0,0.0,0.0,0.0,0.0,0.0,0.0,0.0,0.0,0.0,0.0,0.0,0.0,0.0,0.0,0.0,0.0,0.0,0.0,0.0,0.0,0.0,0.0,0.0,0.0,0.0,0.0,0.0,0.0,0.0,0.0,0.0,0.0,0.0,0.0,0.0,0.0,0.0,0.0,0.0,0.0,0.0,0.0,0.0,0.0,0.0,0.0,0.0,0.0,0.0,0.0,0.0,0.0,0.0,0.0,0.0,0.0,0.0,0.0,0.0,0.0,0.0,0.0,0.0,0.0,0.0,0.0,0.0,0.0,0.0,0.0,0.0,0.0,0.0,0.0,0.0,0.0,0.0,0.0,0.0,0.0,0.0,0.0,0.0,0.0,0.0,0.0,0.0,0.0,0.0,0.0,0.0,0.0,0.0,0.0,0.0,0.0,0.0,0.0,0.0,0.0,0.0,0.0,0.0,0.0,0.0,0.0,0.0,0.0,0.0,0.0,0.0,0.0,0.0,0.0,0.0,0.0,0.0,0.0,0.0,0.0,0.0,0.0,0.0,0.0,0.0,0.0,0.0,0.0,0.0,0.0,0.0,0.0,0.0,0.0,0.0,0.0,0.0,0.0,0.0,0.0,0.0,0.0,0.0,0.0,0.0,0.0,0.0,0.0,0.0,0.0,0.0,0.0,0.0,0.0,0.0,0.0,0.0,0.0,0.0,0.0,0.0,0.0,0.0,0.0,0.0,0.0,0.0,0.0,0.0,0.0,0.0,0.0,0.0,0.0,0.0,0.0,0.0,0.0,0.0,0.0,0.0,0.0,0.0,0.0,0.0,0.0,0.0,0.0,0.0,0.0,0.0,0.0,0.0,0.0,0.0,0.0,0.0,0.0,0.0,0.0,0.0,0.0,0.0,0.0,0.0,0.0,0.0,0.0,0.0,0.0,0.0
-0.35821381197746294,-0.34987159335341905,-0.3316588862424025,-0.3084039345740625,-0.2844162367940316,-0.2630220105917344,-0.24585514317623483,-0.2330923348114447,-0.22382872568952833,-0.21665097689701884,-0.21044134148938112,-0.20414713450397576,-0.19728751039419623,-0.18988113770771317,-0.18227371001495762,-0.17511385167033708,-0.1684851488428286,-0.16215196629000003,-0.1555336695368853,-0.1478964431328964,-0.138821339684666,-0.12779576532662584,-0.11476001199236949,-0.1000485542229978,-0.0843355971710998,-0.0686339236198036,-0.053793457237531546,-0.04056015870389457,-0.029458718315403174,-0.020774751209303177,-0.014605047411322205,-0.010825970696229108,-0.009101138801035368,-0.008924950866191867,-0.009645420204319334,-0.01050844817310407,-0.010612886154069414,-0.009121995712281446,-0.005282487527742956,0.0014839108006645127,0.011475364256673781,0.024733054237848634,0.040691531912272885,0.058392178532665436,0.07666872470099981,0.09457107750448242,0.11108693629525354,0.12585324168030707,0.13914380810540905,0.15185353860133513,0.16566241790339425,0.18149905283982773,0.20040979654221358,0.22272916332656936,0.24781310371097362,0.2743485650085384,0.2995562994325386,0.32082920473083476,0.33597954079537556,0.3437726688206121,0.34452744017484005,0.0,0.0,0.0,0.0,0.0,0.0,0.0,0.0,0.0,0.0,0.0,0.0,0.0,0.0,0.0,0.0,0.0,0.0,0.0,0.0,0.0,0.0,0.0,0.0,0.0,0.0,0.0,0.0,0.0,0.0,0.0,0.0,0.0,0.0,0.0,0.0,0.0,0.0,0.0,0.0,0.0,0.0,0.0,0.0,0.0,0.0,0.0,0.0,0.0,0.0,0.0,0.0,0.0,0.0,0.0,0.0,0.0,0.0,0.0,0.0,0.0,0.0,0.0,0.0,0.0,0.0,0.0,0.0,0.0,0.0,0.0,0.0,0.0,0.0,0.0,0.0,0.0,0.0,0.0,0.0,0.0,0.0,0.0,0.0,0.0,0.0,0.0,0.0,0.0,0.0,0.0,0.0,0.0,0.0,0.0,0.0,0.0,0.0,0.0,0.0,0.0,0.0,0.0,0.0,0.0,0.0,0.0,0.0,0.0,0.0,0.0,0.0,0.0,0.0,0.0,0.0,0.0,0.0,0.0,0.0,0.0,0.0,0.0,0.0,0.0,0.0,0.0,0.0,0.0,0.0,0.0,0.0,0.0,0.0,0.0,0.0,0.0,0.0,0.0,0.0,0.0,0.0,0.0,0.0,0.0,0.0,0.0,0.0,0.0,0.0,0.0,0.0,0.0,0.0,0.0,0.0,0.0,0.0,0.0,0.0,0.0,0.0,0.0,0.0,0.0,0.0,0.0,0.0,0.0,0.0,0.0,0.0,0.0,0.0,0.0,0.0,0.0,0.0,0.0,0.0,0.0,0.0,0.0,0.0,0.0,0.0,0.0,0.0,0.0,0.0,0.0,0.0,0.0,0.0,0.0,0.0,0.0,0.0,0.0,0.0,0.0,0.0,0.0,0.0,0.0,0.0,0.0,0.0,0.0,0.0,0.0,0.0,0.0,0.0,0.0,0.0,0.0,0.0,0.0,0.0,0.0,0.0,0.0,0.0,0.0,0.0,0.0,0.0,0.0,0.0,0.0,0.0,0.0,0.0,0.0,0.0,0.0,0.0,0.0
0.40679408811224627,0.4079771152265189,0.40862838770892235,0.41104329178407,0.4161621772880656,0.423078088909711,0.4297830787572119,0.4336699997482429,0.43231267992692796,0.42424661844393985,0.4091060238711124,0.3880380568255497,0.3632383543444288,0.3373423886843992,0.312725606509742,0.29092526512355477,0.27245309908928506,0.25673147634962373,0.24237209744187038,0.22754348468143717,0.2107747362343345,0.19126613895363995,0.16909896724053275,0.14517593999834483,0.12086993143187781,0.0978246128166597,0.07749548456903302,0.06080850487400754,0.047979782554819245,0.038478008270940174,0.03132416010371267,0.025397860485303247,0.019706822960405563,0.013602515672758034,0.006861944326395039,-0.0003602056089719065,-0.007637977719875564,-0.014526884394512695,-0.02077475120930318,-0.02641004889492206,-0.031843423634569226,-0.03762770253170959,-0.044259120931934785,-0.05193687802325793,-0.06044248659985591,-0.06888541823474414,-0.07620354690477528,-0.08125418797767026,-0.0830990048372127,-0.08139596658953212,-0.07599951283156432,-0.06779466173670126,-0.05814055019554412,-0.048474419488374075,-0.040029271371534184,-0.03291804690056075,-0.026885697811026687,-0.020999193756636586,-0.013849834139535451,-0.004056042369259519,0.009938602833226748,0.0,0.0,0.0,0.0,0.0,0.0,0.0,0.0,0.0,0.0,0.0,0.0,0.0,0.0,0.0,0.0,0.0,0.0,0.0,0.0,0.0,0.0,0.0,0.0,0.0,0.0,0.0,0.0,0.0,0.0,0.0,0.0,0.0,0.0,0.0,0.0,0.0,0.0,0.0,0.0,0.0,0.0,0.0,0.0,0.0,0.0,0.0,0.0,0.0,0.0,0.0,0.0,0.0,0.0,0.0,0.0,0.0,0.0,0.0,0.0,0.0,0.0,0.0,0.0,0.0,0.0,0.0,0.0,0.0,0.0,0.0,0.0,0.0,0.0,0.0,0.0,0.0,0.0,0.0,0.0,0.0,0.0,0.0,0.0,0.0,0.0,0.0,0.0,0.0,0.0,0.0,0.0,0.0,0.0,0.0,0.0,0.0,0.0,0.0,0.0,0.0,0.0,0.0,0.0,0.0,0.0,0.0,0.0,0.0,0.0,0.0,0.0,0.0,0.0,0.0,0.0,0.0,0.0,0.0,0.0,0.0,0.0,0.0,0.0,0.0,0.0,0.0,0.0,0.0,0.0,0.0,0.0,0.0,0.0,0.0,0.0,0.0,0.0,0.0,0.0,0.0,0.0,0.0,0.0,0.0,0.0,0.0,0.0,0.0,0.0,0.0,0.0,0.0,0.0,0.0,0.0,0.0,0.0,0.0,0.0,0.0,0.0,0.0,0.0,0.0,0.0,0.0,0.0,0.0,0.0,0.0,0.0,0.0,0.0,0.0,0.0,0.0,0.0,0.0,0.0,0.0,0.0,0.0,0.0,0.0,0.0,0.0,0.0,0.0,0.0,0.0,0.0,0.0,0.0,0.0,0.0,0.0,0.0,0.0,0.0,0.0,0.0,0.0,0.0,0.0,0.0,0.0,0.0,0.0,0.0,0.0,0.0,0.0,0.0,0.0,0.0,0.0,0.0,0.0,0.0,0.0,0.0,0.0,0.0,0.0,0.0,0.0,0.0,0.0,0.0,0.0,0.0,0.0,0.0,0.0,0.0,0.0,0.0,0.0
-0.11961699467211923,-0.11049715774239566,-0.09585030248326676,-0.07846407465021182,-0.060840342827245014,-0.04511692318376113,-0.031871040760064175,-0.020801933630973823,-0.01091372112922722,-0.0009892738671096746,0.00964783375726644,0.02166413795158703,0.03505432907982132,0.04934371540388282,0.06380816442857402,0.0775512831459753,0.0904087803964739,0.10263788351440734,0.11500949734103379,0.12860560272425778,0.14437079324020824,0.16319293069842344,0.1852602483254931,0.2100577771845386,0.23643645423921236,0.26258511051906785,0.28723886730109577,0.30927717086843226,0.3282107901499139,0.3442673057541669,0.3578672863356945,0.3706309298587255,0.383842343893967,0.39839526415746845,0.41450575031895387,0.43141218117602564,0.44818939832067634,0.4634150866898922,0.4758282694952318,0.48474419488374076,0.49029175475389597,0.49345222282580453,0.495581740787342,0.49805598069965973,0.5018091690913826,0.50713292404333,0.5131536954509855,0.5183201881545649,0.5207660418210555,0.5188741432990246,0.5120667898625905,0.5001987858837785,0.4843467189585162,0.4662661610783397,0.44789374333390536,0.4310259208475097,0.4162187163436825,0.4031724195510199,0.390667737101416,0.37691334336878624,0.3601900992055158,0.0,0.0,0.0,0.0,0.0,0.0,0.0,0.0,0.0,0.0,0.0,0.0,0.0,0.0,0.0,0.0,0.0,0.0,0.0,0.0,0.0,0.0,0.0,0.0,0.0,0.0,0.0,0.0,0.0,0.0,0.0,0.0,0.0,0.0,0.0,0.0,0.0,0.0,0.0,0.0,0.0,0.0,0.0,0.0,0.0,0.0,0.0,0.0,0.0,0.0,0.0,0.0,0.0,0.0,0.0,0.0,0.0,0.0,0.0,0.0,0.0,0.0,0.0,0.0,0.0,0.0,0.0,0.0,0.0,0.0,0.0,0.0,0.0,0.0,0.0,0.0,0.0,0.0,0.0,0.0,0.0,0.0,0.0,0.0,0.0,0.0,0.0,0.0,0.0,0.0,0.0,0.0,0.0,0.0,0.0,0.0,0.0,0.0,0.0,0.0,0.0,0.0,0.0,0.0,0.0,0.0,0.0,0.0,0.0,0.0,0.0,0.0,0.0,0.0,0.0,0.0,0.0,0.0,0.0,0.0,0.0,0.0,0.0,0.0,0.0,0.0,0.0,0.0,0.0,0.0,0.0,0.0,0.0,0.0,0.0,0.0,0.0,0.0,0.0,0.0,0.0,0.0,0.0,0.0,0.0,0.0,0.0,0.0,0.0,0.0,0.0,0.0,0.0,0.0,0.0,0.0,0.0,0.0,0.0,0.0,0.0,0.0,0.0,0.0,0.0,0.0,0.0,0.0,0.0,0.0,0.0,0.0,0.0,0.0,0.0,0.0,0.0,0.0,0.0,0.0,0.0,0.0,0.0,0.0,0.0,0.0,0.0,0.0,0.0,0.0,0.0,0.0,0.0,0.0,0.0,0.0,0.0,0.0,0.0,0.0,0.0,0.0,0.0,0.0,0.0,0.0,0.0,0.0,0.0,0.0,0.0,0.0,0.0,0.0,0.0,0.0,0.0,0.0,0.0,0.0,0.0,0.0,0.0,0.0,0.0,0.0,0.0,0.0,0.0,0.0,0.0,0.0,0.0,0.0,0.0,0.0,0.0,0.0,0.0
-0.09656558245899932,-0.11242331847698978,-0.12730434596015083,-0.14361119343420845,-0.16248823267276413,-0.18375142228052843,-0.20530223017932617,-0.2247579606681516,-0.23969894837197508,-0.24830774064452846,-0.2500057341116376,-0.24493102200423,-0.23488467701049429,-0.22239174843079446,-0.20997337829402854,-0.19954885221858223,-0.19146807551730705,-0.18523594887851141,-0.17933496330673834,-0.17163901594352862,-0.16003296009944237,-0.1427355487681969,-0.11937924156629671,-0.09089996622205548,-0.059356432026580516,-0.02750038733036772,0.0018661421868592224,0.026106324991665767,0.04337615699052565,0.05292615189036762,0.05520875942725075,0.05160298092520407,0.04400347766161619,0.03444753128788591,0.024731846677741875,0.016141233189901558,0.009390743414288779,0.004338284037292551,0.0003359384387674872,-0.0034624585348838628,-0.007827877932985216,-0.012993642078772695,-0.019144769894957843,-0.02615393279312296,-0.033635311481728956,-0.041013421023903,-0.04779096605613334,-0.05376286169943431,-0.05900320148926956,-0.06380816442857404,-0.06842804085540848,-0.07338256416671102,-0.07890671599296653,-0.08501497439287566,-0.09150783270764494,-0.09812560256564336,-0.10449172492661131,-0.11020884951136012,-0.11507510310340423,-0.11920750098671584,-0.12337124584705796,0.0,0.0,0.0,0.0,0.0,0.0,0.0,0.0,0.0,0.0,0.0,0.0,0.0,0.0,0.0,0.0,0.0,0.0,0.0,0.0,0.0,0.0,0.0,0.0,0.0,0.0,0.0,0.0,0.0,0.0,0.0,0.0,0.0,0.0,0.0,0.0,0.0,0.0,0.0,0.0,0.0,0.0,0.0,0.0,0.0,0.0,0.0,0.0,0.0,0.0,0.0,0.0,0.0,0.0,0.0,0.0,0.0,0.0,0.0,0.0,0.0,0.0,0.0,0.0,0.0,0.0,0.0,0.0,0.0,0.0,0.0,0.0,0.0,0.0,0.0,0.0,0.0,0.0,0.0,0.0,0.0,0.0,0.0,0.0,0.0,0.0,0.0,0.0,0.0,0.0,0.0,0.0,0.0,0.0,0.0,0.0,0.0,0.0,0.0,0.0,0.0,0.0,0.0,0.0,0.0,0.0,0.0,0.0,0.0,0.0,0.0,0.0,0.0,0.0,0.0,0.0,0.0,0.0,0.0,0.0,0.0,0.0,0.0,0.0,0.0,0.0,0.0,0.0,0.0,0.0,0.0,0.0,0.0,0.0,0.0,0.0,0.0,0.0,0.0,0.0,0.0,0.0,0.0,0.0,0.0,0.0,0.0,0.0,0.0,0.0,0.0,0.0,0.0,0.0,0.0,0.0,0.0,0.0,0.0,0.0,0.0,0.0,0.0,0.0,0.0,0.0,0.0,0.0,0.0,0.0,0.0,0.0,0.0,0.0,0.0,0.0,0.0,0.0,0.0,0.0,0.0,0.0,0.0,0.0,0.0,0.0,0.0,0.0,0.0,0.0,0.0,0.0,0.0,0.0,0.0,0.0,0.0,0.0,0.0,0.0,0.0,0.0,0.0,0.0,0.0,0.0,0.0,0.0,0.0,0.0,0.0,0.0,0.0,0.0,0.0,0.0,0.0,0.0,0.0,0.0,0.0,0.0,0.0,0.0,0.0,0.0,0.0,0.0,0.0,0.0,0.0,0.0,0.0,0.0,0.0,0.0,0.0,0.0,0.0
0.3524309714118993,0.4178885542163715,0.46500773181013005,0.4921637488870634,0.5013440595814037,0.49674773172956055,0.4844317541300998,0.4705398217056252,0.4597650297392215,0.4544535608725265,0.4532604108580619,0.4522468146777263,0.44565091375651233,0.42736631059137964,0.392765350655914,0.33919336755311363,0.26748062705449444,0.18167017593396667,0.08829269263953851,-0.004684106042438446,-0.08988853167883458,-0.16125402634884464,-0.21515262157673212,-0.25078092531230267,-0.26984251318004504,-0.2762429751140194,-0.27467788507307145,-0.2697487543847459,-0.2651253963853929,-0.26297967596809235,-0.2641750847850501,-0.268175943431452,-0.2737260851753344,-0.2794698674584832,-0.284429136679121,-0.2884273351036229,-0.29174019259222306,-0.2949826534770258,-0.2987607078671219,-0.3033156197911952,-0.30847800506673584,-0.31341393171767357,-0.3169714812941847,-0.31805154827576054,-0.31594705613391555,-0.31069717581199685,-0.30288705587467196,-0.293562102807476,-0.28392159986047677,-0.27507952425973115,-0.26741672897614094,-0.26097126028047923,-0.25532318357620565,-0.24979165144519297,-0.24392879403397824,-0.2368650692611627,-0.22864720776093916,-0.21972384418710883,-0.21071533369436082,-0.20232710408150206,-0.1944024250338286,0.0,0.0,0.0,0.0,0.0,0.0,0.0,0.0,0.0,0.0,0.0,0.0,0.0,0.0,0.0,0.0,0.0,0.0,0.0,0.0,0.0,0.0,0.0,0.0,0.0,0.0,0.0,0.0,0.0,0.0,0.0,0.0,0.0,0.0,0.0,0.0,0.0,0.0,0.0,0.0,0.0,0.0,0.0,0.0,0.0,0.0,0.0,0.0,0.0,0.0,0.0,0.0,0.0,0.0,0.0,0.0,0.0,0.0,0.0,0.0,0.0,0.0,0.0,0.0,0.0,0.0,0.0,0.0,0.0,0.0,0.0,0.0,0.0,0.0,0.0,0.0,0.0,0.0,0.0,0.0,0.0,0.0,0.0,0.0,0.0,0.0,0.0,0.0,0.0,0.0,0.0,0.0,0.0,0.0,0.0,0.0,0.0,0.0,0.0,0.0,0.0,0.0,0.0,0.0,0.0,0.0,0.0,0.0,0.0,0.0,0.0,0.0,0.0,0.0,0.0,0.0,0.0,0.0,0.0,0.0,0.0,0.0,0.0,0.0,0.0,0.0,0.0,0.0,0.0,0.0,0.0,0.0,0.0,0.0,0.0,0.0,0.0,0.0,0.0,0.0,0.0,0.0,0.0,0.0,0.0,0.0,0.0,0.0,0.0,0.0,0.0,0.0,0.0,0.0,0.0,0.0,0.0,0.0,0.0,0.0,0.0,0.0,0.0,0.0,0.0,0.0,0.0,0.0,0.0,0.0,0.0,0.0,0.0,0.0,0.0,0.0,0.0,0.0,0.0,0.0,0.0,0.0,0.0,0.0,0.0,0.0,0.0,0.0,0.0,0.0,0.0,0.0,0.0,0.0,0.0,0.0,0.0,0.0,0.0,0.0,0.0,0.0,0.0,0.0,0.0,0.0,0.0,0.0,0.0,0.0,0.0,0.0,0.0,0.0,0.0,0.0,0.0,0.0,0.0,0.0,0.0,0.0,0.0,0.0,0.0,0.0,0.0,0.0,0.0,0.0,0.0,0.0,0.0,0.0,0.0,0.0,0.0,0.0,0.0
0.17051914156560413,0.2044926560748986,0.2340722046589123,0.2602461413417433,0.285900147594696,0.3154529378679509,0.3531994175559139,0.40237430622274817,0.4638217907215133,0.5351971621063342,0.6110417112850609,0.6829585145780015,0.7414017369742932,0.7774171712011245,0.7844941766179723,0.7601300754634296,0.7060018292029339,0.6280182477026554,0.5350233297908817,0.43701173079569894,0.34327524487546474,0.2603673381851105,0.19138842239338816,0.13568987683854045,0.0895292849734256,0.04744525268753985,0.003642242363018485,-0.04618069713777108,-0.1038279255629986,-0.16817655740864482,-0.2354793303845226,-0.30029727215666135,-0.35667393211600373,-0.3995519511594093,-0.4258823997907151,-0.4353034364391502,-0.4299116995605326,-0.4137103325424268,-0.39164185633432935,-0.368504515498354,-0.3481501778726737,-0.3325835834077038,-0.32208168041346924,-0.31553558409343024,-0.3111266312059928,-0.307228704675211,-0.30248872906478486,-0.2964369790647218,-0.28934879296883487,-0.28194305212625737,-0.27514130149814464,-0.26915084223861846,-0.26385220767561524,-0.2586614969173956,-0.25275947304652197,-0.24558041632627142,-0.2364638306015973,-0.22557972660564982,-0.2135742238904793,-0.20131723195681886,-0.1898740655017799,0.0,0.0,0.0,0.0,0.0,0.0,0.0,0.0,0.0,0.0,0.0,0.0,0.0,0.0,0.0,0.0,0.0,0.0,0.0,0.0,0.0,0.0,0.0,0.0,0.0,0.0,0.0,0.0,0.0,0.0,0.0,0.0,0.0,0.0,0.0,0.0,0.0,0.0,0.0,0.0,0.0,0.0,0.0,0.0,0.0,0.0,0.0,0.0,0.0,0.0,0.0,0.0,0.0,0.0,0.0,0.0,0.0,0.0,0.0,0.0,0.0,0.0,0.0,0.0,0.0,0.0,0.0,0.0,0.0,0.0,0.0,0.0,0.0,0.0,0.0,0.0,0.0,0.0,0.0,0.0,0.0,0.0,0.0,0.0,0.0,0.0,0.0,0.0,0.0,0.0,0.0,0.0,0.0,0.0,0.0,0.0,0.0,0.0,0.0,0.0,0.0,0.0,0.0,0.0,0.0,0.0,0.0,0.0,0.0,0.0,0.0,0.0,0.0,0.0,0.0,0.0,0.0,0.0,0.0,0.0,0.0,0.0,0.0,0.0,0.0,0.0,0.0,0.0,0.0,0.0,0.0,0.0,0.0,0.0,0.0,0.0,0.0,0.0,0.0,0.0,0.0,0.0,0.0,0.0,0.0,0.0,0.0,0.0,0.0,0.0,0.0,0.0,0.0,0.0,0.0,0.0,0.0,0.0,0.0,0.0,0.0,0.0,0.0,0.0,0.0,0.0,0.0,0.0,0.0,0.0,0.0,0.0,0.0,0.0,0.0,0.0,0.0,0.0,0.0,0.0,0.0,0.0,0.0,0.0,0.0,0.0,0.0,0.0,0.0,0.0,0.0,0.0,0.0,0.0,0.0,0.0,0.0,0.0,0.0,0.0,0.0,0.0,0.0,0.0,0.0,0.0,0.0,0.0,0.0,0.0,0.0,0.0,0.0,0.0,0.0,0.0,0.0,0.0,0.0,0.0,0.0,0.0,0.0,0.0,0.0,0.0,0.0,0.0,0.0,0.0,0.0,0.0,0.0,0.0,0.0,0.0,0.0,0.0,0.0
-0.018301566541528987,0.010896533315255598,0.054340819816179026,0.11191543776987462,0.18111580115072354,0.2572112054485155,0.3341094448004202,0.4049116217629731,0.46371302933180847,0.506656145830123,0.53272397743856,0.5440295714402712,0.5448634319133914,0.5408980700424947,0.5375815040703046,0.5386596206412181,0.5452015969132101,0.5548356735346636,0.5624873574011656,0.5613778601275224,0.5445952638438761,0.5068549342177874,0.44556908935868256,0.3619582822310647,0.26094017421946897,0.1503696278006706,0.03977721200134594,-0.06147460264447564,-0.14544645157674688,-0.20688982008414863,-0.2438560082425349,-0.2576198460795186,-0.2522546201048748,-0.2334180055817213,-0.2072941891603447,-0.17955320688040602,-0.15456885676838378,-0.13514818896958458,-0.12238908254507368,-0.11608674757956322,-0.11525040551827713,-0.11862283589781164,-0.1250910053415289,-0.13375164998527486,-0.1439377666037087,-0.15506867866944157,-0.1664609284926211,-0.1772500218407709,-0.18632427439386534,-0.1925212765846202,-0.194886951820606,-0.19292356610653755,-0.18680509844103244,-0.17732840298570154,-0.16576811413123743,-0.15358476786877706,-0.14216758589401174,-0.1322073179914655,-0.12408362245809057,-0.11763731246847987,-0.11228258391694812,0.0,0.0,0.0,0.0,0.0,0.0,0.0,0.0,0.0,0.0,0.0,0.0,0.0,0.0,0.0,0.0,0.0,0.0,0.0,0.0,0.0,0.0,0.0,0.0,0.0,0.0,0.0,0.0,0.0,0.0,0.0,0.0,0.0,0.0,0.0,0.0,0.0,0.0,0.0,0.0,0.0,0.0,0.0,0.0,0.0,0.0,0.0,0.0,0.0,0.0,0.0,0.0,0.0,0.0,0.0,0.0,0.0,0.0,0.0,0.0,0.0,0.0,0.0,0.0,0.0,0.0,0.0,0.0,0.0,0.0,0.0,0.0,0.0,0.0,0.0,0.0,0.0,0.0,0.0,0.0,0.0,0.0,0.0,0.0,0.0,0.0,0.0,0.0,0.0,0.0,0.0,0.0,0.0,0.0,0.0,0.0,0.0,0.0,0.0,0.0,0.0,0.0,0.0,0.0,0.0,0.0,0.0,0.0,0.0,0.0,0.0,0.0,0.0,0.0,0.0,0.0,0.0,0.0,0.0,0.0,0.0,0.0,0.0,0.0,0.0,0.0,0.0,0.0,0.0,0.0,0.0,0.0,0.0,0.0,0.0,0.0,0.0,0.0,0.0,0.0,0.0,0.0,0.0,0.0,0.0,0.0,0.0,0.0,0.0,0.0,0.0,0.0,0.0,0.0,0.0,0.0,0.0,0.0,0.0,0.0,0.0,0.0,0.0,0.0,0.0,0.0,0.0,0.0,0.0,0.0,0.0,0.0,0.0,0.0,0.0,0.0,0.0,0.0,0.0,0.0,0.0,0.0,0.0,0.0,0.0,0.0,0.0,0.0,0.0,0.0,0.0,0.0,0.0,0.0,0.0,0.0,0.0,0.0,0.0,0.0,0.0,0.0,0.0,0.0,0.0,0.0,0.0,0.0,0.0,0.0,0.0,0.0,0.0,0.0,0.0,0.0,0.0,0.0,0.0,0.0,0.0,0.0,0.0,0.0,0.0,0.0,0.0,0.0,0.0,0.0,0.0,0.0,0.0,0.0,0.0,0.0,0.0,0.0,0.0
-0.20806522422708795,-0.20451122740234529,-0.20179333430912844,-0.19983332115615435,-0.1981004406943196,-0.19625013670664523,-0.19351515057617363,-0.1891231879717124,-0.18252102848173504,-0.1734118820946699,-0.16238469431044827,-0.15019385334644567,-0.137808610415941,-0.12613241805648356,-0.11557885151927753,-0.10616036721425638,-0.09676482761637803,-0.08544345983370985,-0.0697438076312321,-0.04720024869974111,-0.016176095433580638,0.02401708930923792,0.07249242525457593,0.1266270549900384,0.18226258276683652,0.23421305567019676,0.2774632275967009,0.30789002196084686,0.32299791761130886,0.3222960895180431,0.3074134413725612,0.2819628401857406,0.2506226649400958,0.21813488769768333,0.18817818532550556,0.1630011849859557,0.14313774578859995,0.12739179538624976,0.1132718577840578,0.0974606504502094,0.07728204840914372,0.05127638806290141,0.019581239557045896,-0.016075700340532222,-0.053068088586698835,-0.08769333740866929,-0.11629221680997358,-0.13601228784533811,-0.14542325846512225,-0.14516327631639822,-0.1367902890939757,-0.12284112477623058,-0.10615322672555341,-0.08928196650664817,-0.07431122352033045,-0.061926436656375324,-0.05174920659045419,-0.042630336073911757,-0.03314067454817412,-0.02221918980596552,-0.00916565193610922,0.0,0.0,0.0,0.0,0.0,0.0,0.0,0.0,0.0,0.0,0.0,0.0,0.0,0.0,0.0,0.0,0.0,0.0,0.0,0.0,0.0,0.0,0.0,0.0,0.0,0.0,0.0,0.0,0.0,0.0,0.0,0.0,0.0,0.0,0.0,0.0,0.0,0.0,0.0,0.0,0.0,0.0,0.0,0.0,0.0,0.0,0.0,0.0,0.0,0.0,0.0,0.0,0.0,0.0,0.0,0.0,0.0,0.0,0.0,0.0,0.0,0.0,0.0,0.0,0.0,0.0,0.0,0.0,0.0,0.0,0.0,0.0,0.0,0.0,0.0,0.0,0.0,0.0,0.0,0.0,0.0,0.0,0.0,0.0,0.0,0.0,0.0,0.0,0.0,0.0,0.0,0.0,0.0,0.0,0.0,0.0,0.0,0.0,0.0,0.0,0.0,0.0,0.0,0.0,0.0,0.0,0.0,0.0,0.0,0.0,0.0,0.0,0.0,0.0,0.0,0.0,0.0,0.0,0.0,0.0,0.0,0.0,0.0,0.0,0.0,0.0,0.0,0.0,0.0,0.0,0.0,0.0,0.0,0.0,0.0,0.0,0.0,0.0,0.0,0.0,0.0,0.0,0.0,0.0,0.0,0.0,0.0,0.0,0.0,0.0,0.0,0.0,0.0,0.0,0.0,0.0,0.0,0.0,0.0,0.0,0.0,0.0,0.0,0.0,0.0,0.0,0.0,0.0,0.0,0.0,0.0,0.0,0.0,0.0,0.0,0.0,0.0,0.0,0.0,0.0,0.0,0.0,0.0,0.0,0.0,0.0,0.0,0.0,0.0,0.0,0.0,0.0,0.0,0.0,0.0,0.0,0.0,0.0,0.0,0.0,0.0,0.0,0.0,0.0,0.0,0.0,0.0,0.0,0.0,0.0,0.0,0.0,0.0,0.0,0.0,0.0,0.0,0.0,0.0,0.0,0.0,0.0,0.0,0.0,0.0,0.0,0.0,0.0,0.0,0.0,0.0,0.0,0.0,0.0,0.0,0.0,0.0,0.0,0.0
-0.12284112477623058,-0.10615322672555341,-0.08928196650664817,-0.07431122352033045,-0.061926436656375324,-0.05174920659045419,-0.042630336073911757,-0.03314067454817412,-0.02221918980596552,-0.00916565193610922,0.006126297882429603,0.02316830970952132,0.04105486548505152,0.058650320760088595,0.07507412876449675,0.08989496922048894,0.10315183591210984,0.11525040551827713,0.1267405174150962,0.13812453624620463,0.14973651027239873,0.1616303911311286,0.173617563677748,0.18531929061850858,0.19670361252257892,0.20788393482633757,0.21935937251870455,0.23198472183721877,0.24661843876790482,0.2644539637550739,0.28585871159207493,0.31045490336072723,0.33709507021762175,0.3639439148358336,0.3892470514708938,0.4112622824637729,0.42893023974539407,0.44220541859802476,0.45207299178036897,0.46045081091211654,0.46940333683754976,0.48058171547829825,0.49463693355483757,0.5107789811068238,0.5270608712716748,0.540572236654122,0.5481363702375804,0.5470684485116504,0.5356944183678624,0.5141295829315373,0.48416584938112944,0.44885403074716484,0.4117852471844023,0.3762777821367184,0.34463453559288,0.31787599428222163,0.295643359890898,0.27650204585715416,0.25863719076147185,0.2399948388134126,0.21921060539398687,0.0,0.0,0.0,0.0,0.0,0.0,0.0,0.0,0.0,0.0,0.0,0.0,0.0,0.0,0.0,0.0,0.0,0.0,0.0,0.0,0.0,0.0,0.0,0.0,0.0,0.0,0.0,0.0,0.0,0.0,0.0,0.0,0.0,0.0,0.0,0.0,0.0,0.0,0.0,0.0,0.0,0.0,0.0,0.0,0.0,0.0,0.0,0.0,0.0,0.0,0.0,0.0,0.0,0.0,0.0,0.0,0.0,0.0,0.0,0.0,0.0,0.0,0.0,0.0,0.0,0.0,0.0,0.0,0.0,0.0,0.0,0.0,0.0,0.0,0.0,0.0,0.0,0.0,0.0,0.0,0.0,0.0,0.0,0.0,0.0,0.0,0.0,0.0,0.0,0.0,0.0,0.0,0.0,0.0,0.0,0.0,0.0,0.0,0.0,0.0,0.0,0.0,0.0,0.0,0.0,0.0,0.0,0.0,0.0,0.0,0.0,0.0,0.0,0.0,0.0,0.0,0.0,0.0,0.0,0.0,0.0,0.0,0.0,0.0,0.0,0.0,0.0,0.0,0.0,0.0,0.0,0.0,0.0,0.0,0.0,0.0,0.0,0.0,0.0,0.0,0.0,0.0,0.0,0.0,0.0,0.0,0.0,0.0,0.0,0.0,0.0,0.0,0.0,0.0,0.0,0.0,0.0,0.0,0.0,0.0,0.0,0.0,0.0,0.0,0.0,0.0,0.0,0.0,0.0,0.0,0.0,0.0,0.0,0.0,0.0,0.0,0.0,0.0,0.0,0.0,0.0,0.0,0.0,0.0,0.0,0.0,0.0,0.0,0.0,0.0,0.0,0.0,0.0,0.0,0.0,0.0,0.0,0.0,0.0,0.0,0.0,0.0,0.0,0.0,0.0,0.0,0.0,0.0,0.0,0.0,0.0,0.0,0.0,0.0,0.0,0.0,0.0,0.0,0.0,0.0,0.0,0.0,0.0,0.0,0.0,0.0,0.0,0.0,0.0,0.0,0.0,0.0,0.0,0.0,0.0,0.0,0.0,0.0,0.0
0.25863719076147185,0.2399948388134126,0.21921060539398687,0.1958347017416022,0.1704024236096415,0.14443625070621532,0.11952190623281736,0.09723320335912601,0.07868104303952214,0.06430280136212889,0.05406057810190083,0.04696216033580263,0.041674348068755376,0.03683378579159164,0.03140944528073219,0.025097145430099697,0.018032743428132516,0.01075614471244325,0.004017880230540786,-0.001483910800664513,-0.005282449377023162,-0.007385512695103604,-0.008454076564265505,-0.009473969556495843,-0.011376649471761261,-0.014669450454417336,-0.018811177442951243,-0.022657627160762563,-0.02428312261067393,-0.02126938814285802,-0.011364677381429584,0.007587336435378304,0.036082431279814926,0.0729847020706443,0.11549772398505458,0.15920612634537085,0.19955299806467405,0.23132770595101101,0.24995176258649984,0.25226483611296713,0.23676491635655833,0.20500667432262293,0.15995166672306635,0.10603448452457098,0.04847441948837407,-0.007882294297985131,-0.05824170139345031,-0.09984575739738294,-0.13186165127752786,-0.155315997136219,-0.17299538770988807,-0.1876196807283545,-0.20216855581740803,-0.2187646793873618,-0.2381676835066543,-0.26000540232754005,-0.281876622883283,-0.3010036621909578,-0.31468334657864444,-0.32101936987708957,-0.31981721727469925,0.0,0.0,0.0,0.0,0.0,0.0,0.0,0.0,0.0,0.0,0.0,0.0,0.0,0.0,0.0,0.0,0.0,0.0,0.0,0.0,0.0,0.0,0.0,0.0,0.0,0.0,0.0,0.0,0.0,0.0,0.0,0.0,0.0,0.0,0.0,0.0,0.0,0.0,0.0,0.0,0.0,0.0,0.0,0.0,0.0,0.0,0.0,0.0,0.0,0.0,0.0,0.0,0.0,0.0,0.0,0.0,0.0,0.0,0.0,0.0,0.0,0.0,0.0,0.0,0.0,0.0,0.0,0.0,0.0,0.0,0.0,0.0,0.0,0.0,0.0,0.0,0.0,0.0,0.0,0.0,0.0,0.0,0.0,0.0,0.0,0.0,0.0,0.0,0.0,0.0,0.0,0.0,0.0,0.0,0.0,0.0,0.0,0.0,0.0,0.0,0.0,0.0,0.0,0.0,0.0,0.0,0.0,0.0,0.0,0.0,0.0,0.0,0.0,0.0,0.0,0.0,0.0,0.0,0.0,0.0,0.0,0.0,0.0,0.0,0.0,0.0,0.0,0.0,0.0,0.0,0.0,0.0,0.0,0.0,0.0,0.0,0.0,0.0,0.0,0.0,0.0,0.0,0.0,0.0,0.0,0.0,0.0,0.0,0.0,0.0,0.0,0.0,0.0,0.0,0.0,0.0,0.0,0.0,0.0,0.0,0.0,0.0,0.0,0.0,0.0,0.0,0.0,0.0,0.0,0.0,0.0,0.0,0.0,0.0,0.0,0.0,0.0,0.0,0.0,0.0,0.0,0.0,0.0,0.0,0.0,0.0,0.0,0.0,0.0,0.0,0.0,0.0,0.0,0.0,0.0,0.0,0.0,0.0,0.0,0.0,0.0,0.0,0.0,0.0,0.0,0.0,0.0,0.0,0.0,0.0,0.0,0.0,0.0,0.0,0.0,0.0,0.0,0.0,0.0,0.0,0.0,0.0,0.0,0.0,0.0,0.0,0.0,0.0,0.0,0.0,0.0,0.0,0.0,0.0,0.0,0.0,0.0,0.0,0.0
-0.1876196807283545,-0.20216855581740803,-0.2187646793873618,-0.2381676835066543,-0.26000540232754005,-0.281876622883283,-0.3010036621909578,-0.31468334657864444,-0.32101936987708957,-0.31981721727469925,-0.31151814238830855,-0.29793748071960385,-0.2814996392481457,-0.2646307594518381,-0.24952522712434855,-0.23685167550518582,-0.22644342427194322,-0.21734238134516115,-0.2082421490265866,-0.1982069425904089,-0.18635344808192242,-0.17254454599475152,-0.1572241870748089,-0.14121884452990613,-0.12558448073860473,-0.11095043608713963,-0.09762404687434655,-0.08550335712577353,-0.07419554003322563,-0.06324094167990191,-0.05223227557607258,-0.04097549846655114,-0.02951401602624945,-0.018054248074751568,-0.0068740529751974335,0.004046893998188323,0.014860618945731308,0.02599412100557803,0.038087043883722485,0.051751388853290746,0.06769583208303398,0.08598928602212032,0.10618032325063362,0.12736901039037066,0.1484900202932964,0.1684174267089829,0.18638793001876547,0.20226238950395908,0.21665097689701882,0.2310446802932202,0.2467548617178787,0.2651619979876003,0.28697942550597466,0.31186858660632505,0.33856603966617954,0.3642455414652095,0.385921448566566,0.4008292482813377,0.4070861963156313,0.40443474845086547,0.39343646201117444,0.0,0.0,0.0,0.0,0.0,0.0,0.0,0.0,0.0,0.0,0.0,0.0,0.0,0.0,0.0,0.0,0.0,0.0,0.0,0.0,0.0,0.0,0.0,0.0,0.0,0.0,0.0,0.0,0.0,0.0,0.0,0.0,0.0,0.0,0.0,0.0,0.0,0.0,0.0,0.0,0.0,0.0,0.0,0.0,0.0,0.0,0.0,0.0,0.0,0.0,0.0,0.0,0.0,0.0,0.0,0.0,0.0,0.0,0.0,0.0,0.0,0.0,0.0,0.0,0.0,0.0,0.0,0.0,0.0,0.0,0.0,0.0,0.0,0.0,0.0,0.0,0.0,0.0,0.0,0.0,0.0,0.0,0.0,0.0,0.0,0.0,0.0,0.0,0.0,0.0,0.0,0.0,0.0,0.0,0.0,0.0,0.0,0.0,0.0,0.0,0.0,0.0,0.0,0.0,0.0,0.0,0.0,0.0,0.0,0.0,0.0,0.0,0.0,0.0,0.0,0.0,0.0,0.0,0.0,0.0,0.0,0.0,0.0,0.0,0.0,0.0,0.0,0.0,0.0,0.0,0.0,0.0,0.0,0.0,0.0,0.0,0.0,0.0,0.0,0.0,0.0,0.0,0.0,0.0,0.0,0.0,0.0,0.0,0.0,0.0,0.0,0.0,0.0,0.0,0.0,0.0,0.0,0.0,0.0,0.0,0.0,0.0,0.0,0.0,0.0,0.0,0.0,0.0,0.0,0.0,0.0,0.0,0.0,0.0,0.0,0.0,0.0,0.0,0.0,0.0,0.0,0.0,0.0,0.0,0.0,0.0,0.0,0.0,0.0,0.0,0.0,0.0,0.0,0.0,0.0,0.0,0.0,0.0,0.0,0.0,0.0,0.0,0.0,0.0,0.0,0.0,0.0,0.0,0.0,0.0,0.0,0.0,0.0,0.0,0.0,0.0,0.0,0.0,0.0,0.0,0.0,0.0,0.0,0.0,0.0,0.0,0.0,0.0,0.0,0.0,0.0,0.0,0.0,0.0,0.0,0.0,0.0,0.0,0.0
0.05969701748611186,0.04451732401993538,0.03239051637274963,0.022109151052812675,0.012583206798485711,0.002968543082463218,-0.007172235536545147,-0.017710431193261603,-0.028465068919333942,-0.03906096726230539,-0.0492118815532807,-0.05886179509302567,-0.06812238796512578,-0.07751283981871267,-0.08760767396044701,-0.09884335215273932,-0.11129331004983845,-0.12450630930718184,-0.1375257546117813,-0.14917282959972258,-0.15823025124869602,-0.16372482500665123,-0.1652327661771831,-0.16274067604886788,-0.15706998590201493,-0.1495045013975859,-0.14146616299668355,-0.1342893494354576,-0.12847384439110446,-0.12426564667300342,-0.12139692958285177,-0.11920750098671584,-0.11703287626263227,-0.11376190695963301,-0.1090105742793259,-0.10284232352303804,-0.09571224664286107,-0.08842032611085389,-0.08157098050024443,-0.07608529110024896,-0.07278036976492604,-0.07221699229900627,-0.07459115129508581,-0.07961694981936339,-0.08690529742423471,-0.09583640975041689,-0.10560498531395782,-0.11526397561457523,-0.12389565452155955,-0.13087791396886964,-0.13590094532779648,-0.13899297832890936,-0.14041403873913366,-0.1407464157611482,-0.14066483753939124,-0.1407779680286744,-0.14146616299668355,-0.14270268877373063,-0.1442285912622488,-0.14544858876199768,-0.14560313172864817,0.0,0.0,0.0,0.0,0.0,0.0,0.0,0.0,0.0,0.0,0.0,0.0,0.0,0.0,0.0,0.0,0.0,0.0,0.0,0.0,0.0,0.0,0.0,0.0,0.0,0.0,0.0,0.0,0.0,0.0,0.0,0.0,0.0,0.0,0.0,0.0,0.0,0.0,0.0,0.0,0.0,0.0,0.0,0.0,0.0,0.0,0.0,0.0,0.0,0.0,0.0,0.0,0.0,0.0,0.0,0.0,0.0,0.0,0.0,0.0,0.0,0.0,0.0,0.0,0.0,0.0,0.0,0.0,0.0,0.0,0.0,0.0,0.0,0.0,0.0,0.0,0.0,0.0,0.0,0.0,0.0,0.0,0.0,0.0,0.0,0.0,0.0,0.0,0.0,0.0,0.0,0.0,0.0,0.0,0.0,0.0,0.0,0.0,0.0,0.0,0.0,0.0,0.0,0.0,0.0,0.0,0.0,0.0,0.0,0.0,0.0,0.0,0.0,0.0,0.0,0.0,0.0,0.0,0.0,0.0,0.0,0.0,0.0,0.0,0.0,0.0,0.0,0.0,0.0,0.0,0.0,0.0,0.0,0.0,0.0,0.0,0.0,0.0,0.0,0.0,0.0,0.0,0.0,0.0,0.0,0.0,0.0,0.0,0.0,0.0,0.0,0.0,0.0,0.0,0.0,0.0,0.0,0.0,0.0,0.0,0.0,0.0,0.0,0.0,0.0,0.0,0.0,0.0,0.0,0.0,0.0,0.0,0.0,0.0,0.0,0.0,0.0,0.0,0.0,0.0,0.0,0.0,0.0,0.0,0.0,0.0,0.0,0.0,0.0,0.0,0.0,0.0,0.0,0.0,0.0,0.0,0.0,0.0,0.0,0.0,0.0,0.0,0.0,0.0,0.0,0.0,0.0,0.0,0.0,0.0,0.0,0.0,0.0,0.0,0.0,0.0,0.0,0.0,0.0,0.0,0.0,0.0,0.0,0.0,0.0,0.0,0.0,0.0,0.0,0.0,0.0,0.0,0.0,0.0,0.0,0.0,0.0,0.0,0.0
-0.1499561253582977,-0.14178497547980526,-0.13404660899336096,-0.12727742685725352,-0.1213934724766727,-0.11584686253859791,-0.1099843448003635,-0.10337911911296106,-0.09588811953767391,-0.08823618101512867,-0.08126977036397323,-0.07580198114438627,-0.07221699229900627,-0.0699785071970235,-0.06800537909967858,-0.06421221936567408,-0.05604860382600443,-0.041054865485051516,-0.017328292281325614,0.01544903118769729,0.05628645538750739,0.10278868939378674,0.15160622013455768,0.19935630746690103,0.24296303619530862,0.28098227917494506,0.31392776008940226,0.34426730575416686,0.37605741960109723,0.4133387978465216,0.45938409282750114,0.5153877655042305,0.5797144861262696,0.6479710440496945,0.7131272814300011,0.7672417658470758,0.8029698187551315,0.8151616664983723,0.8021670880047912,0.7657923380202369,0.711260947187818,0.6459391083800763,0.5777359383920502,0.5136154293884795,0.4578187848698341,0.4117129130663157,0.3737592947512262,0.3403102102857282,0.30699307433728606,0.26951286743549846,0.2253344454747017,0.17411169271650456,0.11772359018605134,0.05993476770017709,0.005016574686395918,-0.042703133448328594,-0.07990177644569148,-0.10486302991362556,-0.11752763647233516,-0.11981730340477553,-0.11463810860511452,0.0,0.0,0.0,0.0,0.0,0.0,0.0,0.0,0.0,0.0,0.0,0.0,0.0,0.0,0.0,0.0,0.0,0.0,0.0,0.0,0.0,0.0,0.0,0.0,0.0,0.0,0.0,0.0,0.0,0.0,0.0,0.0,0.0,0.0,0.0,0.0,0.0,0.0,0.0,0.0,0.0,0.0,0.0,0.0,0.0,0.0,0.0,0.0,0.0,0.0,0.0,0.0,0.0,0.0,0.0,0.0,0.0,0.0,0.0,0.0,0.0,0.0,0.0,0.0,0.0,0.0,0.0,0.0,0.0,0.0,0.0,0.0,0.0,0.0,0.0,0.0,0.0,0.0,0.0,0.0,0.0,0.0,0.0,0.0,0.0,0.0,0.0,0.0,0.0,0.0,0.0,0.0,0.0,0.0,0.0,0.0,0.0,0.0,0.0,0.0,0.0,0.0,0.0,0.0,0.0,0.0,0.0,0.0,0.0,0.0,0.0,0.0,0.0,0.0,0.0,0.0,0.0,0.0,0.0,0.0,0.0,0.0,0.0,0.0,0.0,0.0,0.0,0.0,0.0,0.0,0.0,0.0,0.0,0.0,0.0,0.0,0.0,0.0,0.0,0.0,0.0,0.0,0.0,0.0,0.0,0.0,0.0,0.0,0.0,0.0,0.0,0.0,0.0,0.0,0.0,0.0,0.0,0.0,0.0,0.0,0.0,0.0,0.0,0.0,0.0,0.0,0.0,0.0,0.0,0.0,0.0,0.0,0.0,0.0,0.0,0.0,0.0,0.0,0.0,0.0,0.0,0.0,0.0,0.0,0.0,0.0,0.0,0.0,0.0,0.0,0.0,0.0,0.0,0.0,0.0,0.0,0.0,0.0,0.0,0.0,0.0,0.0,0.0,0.0,0.0,0.0,0.0,0.0,0.0,0.0,0.0,0.0,0.0,0.0,0.0,0.0,0.0,0.0,0.0,0.0,0.0,0.0,0.0,0.0,0.0,0.0,0.0,0.0,0.0,0.0,0.0,0.0,0.0,0.0,0.0,0.0,0.0,0.0,0.0
0.17411169271650456,0.11772359018605134,0.05993476770017709,0.005016574686395918,-0.042703133448328594,-0.07990177644569148,-0.10486302991362556,-0.11752763647233516,-0.11981730340477553,-0.11463810860511452,-0.10537248261825419,-0.09521760970930622,-0.08653970331454718,-0.08101200258502975,-0.07921117684836758,-0.08094299231082008,-0.08557218950498689,-0.09225687658955131,-0.1005053126870692,-0.10997486177373705,-0.12048067452646007,-0.1318207427923642,-0.14359981762197793,-0.15503370550329842,-0.1652166543598729,-0.17317035240605938,-0.1780692960797415,-0.1795923071949874,-0.17757606862199446,-0.17277937736551088,-0.16640579455341414,-0.1597677295382125,-0.15420798797871907,-0.14975701554512316,-0.1464773072468443,-0.14396101533549946,-0.14146616299668352,-0.1385872845609745,-0.13386133636962252,-0.12710872639895798,-0.11868256142575166,-0.1093147623156191,-0.10019515012578288,-0.09167180236644343,-0.0845848528836846,-0.07961211975286246,-0.07716336163455466,-0.07747179650439641,-0.08003842184894529,-0.08447608284003799,-0.09024939170833131,-0.09670152050997073,-0.10312290746820003,-0.10872956979962346,-0.11296697003713839,-0.11549927064554895,-0.11623967938538682,-0.11523211061235107,-0.11295434214078463,-0.10985054841448189,-0.10636870031792982,0.0,0.0,0.0,0.0,0.0,0.0,0.0,0.0,0.0,0.0,0.0,0.0,0.0,0.0,0.0,0.0,0.0,0.0,0.0,0.0,0.0,0.0,0.0,0.0,0.0,0.0,0.0,0.0,0.0,0.0,0.0,0.0,0.0,0.0,0.0,0.0,0.0,0.0,0.0,0.0,0.0,0.0,0.0,0.0,0.0,0.0,0.0,0.0,0.0,0.0,0.0,0.0,0.0,0.0,0.0,0.0,0.0,0.0,0.0,0.0,0.0,0.0,0.0,0.0,0.0,0.0,0.0,0.0,0.0,0.0,0.0,0.0,0.0,0.0,0.0,0.0,0.0,0.0,0.0,0.0,0.0,0.0,0.0,0.0,0.0,0.0,0.0,0.0,0.0,0.0,0.0,0.0,0.0,0.0,0.0,0.0,0.0,0.0,0.0,0.0,0.0,0.0,0.0,0.0,0.0,0.0,0.0,0.0,0.0,0.0,0.0,0.0,0.0,0.0,0.0,0.0,0.0,0.0,0.0,0.0,0.0,0.0,0.0,0.0,0.0,0.0,0.0,0.0,0.0,0.0,0.0,0.0,0.0,0.0,0.0,0.0,0.0,0.0,0.0,0.0,0.0,0.0,0.0,0.0,0.0,0.0,0.0,0.0,0.0,0.0,0.0,0.0,0.0,0.0,0.0,0.0,0.0,0.0,0.0,0.0,0.0,0.0,0.0,0.0,0.0,0.0,0.0,0.0,0.0,0.0,0.0,0.0,0.0,0.0,0.0,0.0,0.0,0.0,0.0,0.0,0.0,0.0,0.0,0.0,0.0,0.0,0.0,0.0,0.0,0.0,0.0,0.0,0.0,0.0,0.0,0.0,0.0,0.0,0.0,0.0,0.0,0.0,0.0,0.0,0.0,0.0,0.0,0.0,0.0,0.0,0.0,0.0,0.0,0.0,0.0,0.0,0.0,0.0,0.0,0.0,0.0,0.0,0.0,0.0,0.0,0.0,0.0,0.0,0.0,0.0,0.0,0.0,0.0,0.0,0.0,0.0,0.0,0.0,0.0
0.04937432978519079,0.05652909750536346,0.06182961669435469,0.0642556536852787,0.06377211656280146,0.060492183135337364,0.05498329920943465,0.048227101021596656,0.041125835912824774,0.03525411511115251,0.03184388865208596,0.03163454016025891,0.03462458534883863,0.03978795056694698,0.04583701503976486,0.051135176294249636,0.05429104164358226,0.05465738115780955,0.05260241030447057,0.05006388128274198,0.05020408672713328,0.05703089809558824,0.07469017696678046,0.10656113419476378,0.15453525631560272,0.2183389101090338,0.29522758081011996,0.3801284834368926,0.4661597142516824,0.5458462297923922,0.6121798885607402,0.6597488592206732,0.6855667899070048,0.6893279327933011,0.6736228432377124,0.6431374502048374,0.6037380827015114,0.5614129195847406,0.5211677242501674,0.48695586594164514,0.46111970313220263,0.44459669655756107,0.4372590492624764,0.4380761355561979,0.4461445679547943,0.4603196851355089,0.47927580072286396,0.5013145321578278,0.5238888801828654,0.5444860513468484,0.5601123091278787,0.567855257117231,0.5653700150531793,0.5509969901391505,0.5252087363146751,0.48978804389481584,0.44781755657797007,0.40312910084719256,0.3593235776212631,0.31984921576036773,0.2867892211413416,0.0,0.0,0.0,0.0,0.0,0.0,0.0,0.0,0.0,0.0,0.0,0.0,0.0,0.0,0.0,0.0,0.0,0.0,0.0,0.0,0.0,0.0,0.0,0.0,0.0,0.0,0.0,0.0,0.0,0.0,0.0,0.0,0.0,0.0,0.0,0.0,0.0,0.0,0.0,0.0,0.0,0.0,0.0,0.0,0.0,0.0,0.0,0.0,0.0,0.0,0.0,0.0,0.0,0.0,0.0,0.0,0.0,0.0,0.0,0.0,0.0,0.0,0.0,0.0,0.0,0.0,0.0,0.0,0.0,0.0,0.0,0.0,0.0,0.0,0.0,0.0,0.0,0.0,0.0,0.0,0.0,0.0,0.0,0.0,0.0,0.0,0.0,0.0,0.0,0.0,0.0,0.0,0.0,0.0,0.0,0.0,0.0,0.0,0.0,0.0,0.0,0.0,0.0,0.0,0.0,0.0,0.0,0.0,0.0,0.0,0.0,0.0,0.0,0.0,0.0,0.0,0.0,0.0,0.0,0.0,0.0,0.0,0.0,0.0,0.0,0.0,0.0,0.0,0.0,0.0,0.0,0.0,0.0,0.0,0.0,0.0,0.0,0.0,0.0,0.0,0.0,0.0,0.0,0.0,0.0,0.0,0.0,0.0,0.0,0.0,0.0,0.0,0.0,0.0,0.0,0.0,0.0,0.0,0.0,0.0,0.0,0.0,0.0,0.0,0.0,0.0,0.0,0.0,0.0,0.0,0.0,0.0,0.0,0.0,0.0,0.0,0.0,0.0,0.0,0.0,0.0,0.0,0.0,0.0,0.0,0.0,0.0,0.0,0.0,0.0,0.0,0.0,0.0,0.0,0.0,0.0,0.0,0.0,0.0,0.0,0.0,0.0,0.0,0.0,0.0,0.0,0.0,0.0,0.0,0.0,0.0,0.0,0.0,0.0,0.0,0.0,0.0,0.0,0.0,0.0,0.0,0.0,0.0,0.0,0.0,0.0,0.0,0.0,0.0,0.0,0.0,0.0,0.0,0.0,0.0,0.0,0.0,0.0,0.0
0.26074857600434753,0.24088818664120587,0.2251121780117593,0.21112671397868918,0.19668751443072574,0.18028374462008326,0.16149895880565443,0.1409690054243376,0.12054853572975968,0.10252365130462252,0.08915082708863893,0.08210973097010305,0.08202281200881276,0.08856337919370305,0.10028285637406817,0.11505663796232705,0.13058415045847713,0.14471940174295841,0.15658946142704264,0.16583599308997804,0.1729499495836839,0.17905856994685118,0.18525983413916353,0.1933523534977787,0.2038484139000745,0.21646038410118704,0.23025349256977687,0.2437623873583948,0.25624314861762526,0.26677473367992205,0.27503407781879086,0.2814484151927026,0.28699007252957726,0.2934241192505785,0.30196703572376976,0.313228350545144,0.32695501307974756,0.34185300990631634,0.35631765876613564,0.36781849589409743,0.3738359254275134,0.37246161096679264,0.3627453591625177,0.3454821068778513,0.322060651357565,0.29461188604738525,0.26562003331894773,0.23741914968339006,0.21212887006250647,0.1906889214769278,0.17312890161505148,0.15877845567110285,0.14659999245519637,0.13563379571340414,0.12493561263788076,0.11391291843158821,0.10238984524585137,0.09058122341562376,0.07888321194466798,0.0675475534295391,0.056637579259433066,0.0,0.0,0.0,0.0,0.0,0.0,0.0,0.0,0.0,0.0,0.0,0.0,0.0,0.0,0.0,0.0,0.0,0.0,0.0,0.0,0.0,0.0,0.0,0.0,0.0,0.0,0.0,0.0,0.0,0.0,0.0,0.0,0.0,0.0,0.0,0.0,0.0,0.0,0.0,0.0,0.0,0.0,0.0,0.0,0.0,0.0,0.0,0.0,0.0,0.0,0.0,0.0,0.0,0.0,0.0,0.0,0.0,0.0,0.0,0.0,0.0,0.0,0.0,0.0,0.0,0.0,0.0,0.0,0.0,0.0,0.0,0.0,0.0,0.0,0.0,0.0,0.0,0.0,0.0,0.0,0.0,0.0,0.0,0.0,0.0,0.0,0.0,0.0,0.0,0.0,0.0,0.0,0.0,0.0,0.0,0.0,0.0,0.0,0.0,0.0,0.0,0.0,0.0,0.0,0.0,0.0,0.0,0.0,0.0,0.0,0.0,0.0,0.0,0.0,0.0,0.0,0.0,0.0,0.0,0.0,0.0,0.0,0.0,0.0,0.0,0.0,0.0,0.0,0.0,0.0,0.0,0.0,0.0,0.0,0.0,0.0,0.0,0.0,0.0,0.0,0.0,0.0,0.0,0.0,0.0,0.0,0.0,0.0,0.0,0.0,0.0,0.0,0.0,0.0,0.0,0.0,0.0,0.0,0.0,0.0,0.0,0.0,0.0,0.0,0.0,0.0,0.0,0.0,0.0,0.0,0.0,0.0,0.0,0.0,0.0,0.0,0.0,0.0,0.0,0.0,0.0,0.0,0.0,0.0,0.0,0.0,0.0,0.0,0.0,0.0,0.0,0.0,0.0,0.0,0.0,0.0,0.0,0.0,0.0,0.0,0.0,0.0,0.0,0.0,0.0,0.0,0.0,0.0,0.0,0.0,0.0,0.0,0.0,0.0,0.0,0.0,0.0,0.0,0.0,0.0,0.0,0.0,0.0,0.0,0.0,0.0,0.0,0.0,0.0,0.0,0.0,0.0,0.0,0.0,0.0,0.0,0.0,0.0,0.0
0.12493561263788076,0.11391291843158821,0.10238984524585137,0.09058122341562376,0.07888321194466798,0.0675475534295391,0.056637579259433066,0.04600123482059989,0.03540669114532654,0.024458163762790672,0.012794349050258553,0.00023694457442143324,-0.013107878739203193,-0.026755633628853553,-0.04006712108522775,-0.05240658320174938,-0.0632356452848481,-0.07221699229900627,-0.07920682228046491,-0.08436753328290054,-0.08821168144757095,-0.0913818120816348,-0.09447565430897396,-0.09786641107954418,-0.1016777559738583,-0.10604321672288529,-0.11103917842510592,-0.11673431631894164,-0.12320003099710553,-0.1304503670730445,-0.13873093880096152,-0.14820627193989575,-0.15877845567110285,-0.1699662152815832,-0.1807392439226748,-0.19010643842299174,-0.19707311905440478,-0.20082259502326402,-0.20091986062494405,-0.19717498903557615,-0.1902596243004673,-0.1813062980529336,-0.17163901594352862,-0.1624798787576304,-0.15460880129192553,-0.148605184116468,-0.14463046276014144,-0.14245543686379322,-0.1415301640967302,-0.14117757967792738,-0.14089390967391835,-0.1403644767493201,-0.13948761526246417,-0.13825549242487134,-0.1369349332663268,-0.135930890351747,-0.13567552420768125,-0.13651979366113515,-0.13849605260914888,-0.1417022725502162,-0.14602071470794278,0.0,0.0,0.0,0.0,0.0,0.0,0.0,0.0,0.0,0.0,0.0,0.0,0.0,0.0,0.0,0.0,0.0,0.0,0.0,0.0,0.0,0.0,0.0,0.0,0.0,0.0,0.0,0.0,0.0,0.0,0.0,0.0,0.0,0.0,0.0,0.0,0.0,0.0,0.0,0.0,0.0,0.0,0.0,0.0,0.0,0.0,0.0,0.0,0.0,0.0,0.0,0.0,0.0,0.0,0.0,0.0,0.0,0.0,0.0,0.0,0.0,0.0,0.0,0.0,0.0,0.0,0.0,0.0,0.0,0.0,0.0,0.0,0.0,0.0,0.0,0.0,0.0,0.0,0.0,0.0,0.0,0.0,0.0,0.0,0.0,0.0,0.0,0.0,0.0,0.0,0.0,0.0,0.0,0.0,0.0,0.0,0.0,0.0,0.0,0.0,0.0,0.0,0.0,0.0,0.0,0.0,0.0,0.0,0.0,0.0,0.0,0.0,0.0,0.0,0.0,0.0,0.0,0.0,0.0,0.0,0.0,0.0,0.0,0.0,0.0,0.0,0.0,0.0,0.0,0.0,0.0,0.0,0.0,0.0,0.0,0.0,0.0,0.0,0.0,0.0,0.0,0.0,0.0,0.0,0.0,0.0,0.0,0.0,0.0,0.0,0.0,0.0,0.0,0.0,0.0,0.0,0.0,0.0,0.0,0.0,0.0,0.0,0.0,0.0,0.0,0.0,0.0,0.0,0.0,0.0,0.0,0.0,0.0,0.0,0.0,0.0,0.0,0.0,0.0,0.0,0.0,0.0,0.0,0.0,0.0,0.0,0.0,0.0,0.0,0.0,0.0,0.0,0.0,0.0,0.0,0.0,0.0,0.0,0.0,0.0,0.0,0.0,0.0,0.0,0.0,0.0,0.0,0.0,0.0,0.0,0.0,0.0,0.0,0.0,0.0,0.0,0.0,0.0,0.0,0.0,0.0,0.0,0.0,0.0,0.0,0.0,0.0,0.0,0.0,0.0,0.0,0.0,0.0,0.0,0.0,0.0,0.0,0.0,0.0
-0.23050081103655432,-0.2401641218911899,-0.24939410560910313,-0.25700932550200517,-0.2619682894876192,-0.26364148558472844,-0.2621562893882953,-0.2579604420729099,-0.25183192775830743,-0.24469580744206124,-0.23742572810632204,-0.23085652734222023,-0.22524184890962173,-0.2204031371468982,-0.21589095456187204,-0.2112099706279156,-0.20620415255986496,-0.2007237407462189,-0.19476852603367725,-0.18846865328022439,-0.1820263915481802,-0.17577077686549233,-0.16983012063622518,-0.16413023971570345,-0.15851221658594594,-0.15284281246844478,-0.1471636257350384,-0.1416090893858424,-0.13624600630455577,-0.1311020943194873,-0.12613241805648356,-0.12122241712852458,-0.1162659873700823,-0.11103538136723366,-0.10539546819287132,-0.09942202364452236,-0.09341246088658559,-0.08803546914583532,-0.08389099806976887,-0.08140945177211185,-0.08062582016943852,-0.0808866619423623,-0.08114868925514344,-0.07956382867533639,-0.0738799732822035,-0.06182961669435469,-0.041431721474727144,-0.012025558694091215,0.026049151659382295,0.07109779290609791,0.12019677485382553,0.16979202218051176,0.21563551304294543,0.25426470950713737,0.2833761419318922,0.30222316640200575,0.311911423009534,0.31432921719619367,0.3124492117257418,0.30928559036431985,0.30716953573755407,0.0,0.0,0.0,0.0,0.0,0.0,0.0,0.0,0.0,0.0,0.0,0.0,0.0,0.0,0.0,0.0,0.0,0.0,0.0,0.0,0.0,0.0,0.0,0.0,0.0,0.0,0.0,0.0,0.0,0.0,0.0,0.0,0.0,0.0,0.0,0.0,0.0,0.0,0.0,0.0,0.0,0.0,0.0,0.0,0.0,0.0,0.0,0.0,0.0,0.0,0.0,0.0,0.0,0.0,0.0,0.0,0.0,0.0,0.0,0.0,0.0,0.0,0.0,0.0,0.0,0.0,0.0,0.0,0.0,0.0,0.0,0.0,0.0,0.0,0.0,0.0,0.0,0.0,0.0,0.0,0.0,0.0,0.0,0.0,0.0,0.0,0.0,0.0,0.0,0.0,0.0,0.0,0.0,0.0,0.0,0.0,0.0,0.0,0.0,0.0,0.0,0.0,0.0,0.0,0.0,0.0,0.0,0.0,0.0,0.0,0.0,0.0,0.0,0.0,0.0,0.0,0.0,0.0,0.0,0.0,0.0,0.0,0.0,0.0,0.0,0.0,0.0,0.0,0.0,0.0,0.0,0.0,0.0,0.0,0.0,0.0,0.0,0.0,0.0,0.0,0.0,0.0,0.0,0.0,0.0,0.0,0.0,0.0,0.0,0.0,0.0,0.0,0.0,0.0,0.0,0.0,0.0,0.0,0.0,0.0,0.0,0.0,0.0,0.0,0.0,0.0,0.0,0.0,0.0,0.0,0.0,0.0,0.0,0.0,0.0,0.0,0.0,0.0,0.0,0.0,0.0,0.0,0.0,0.0,0.0,0.0,0.0,0.0,0.0,0.0,0.0,0.0,0.0,0.0,0.0,0.0,0.0,0.0,0.0,0.0,0.0,0.0,0.0,0.0,0.0,0.0,0.0,0.0,0.0,0.0,0.0,0.0,0.0,0.0,0.0,0.0,0.0,0.0,0.0,0.0,0.0,0.0,0.0,0.0,0.0,0.0,0.0,0.0,0.0,0.0,0.0,0.0,0.0,0.0,0.0,0.0,0.0,0.0,0.0
0.16979202218051176,0.21563551304294543,0.25426470950713737,0.2833761419318922,0.30222316640200575,0.311911423009534,0.31432921719619367,0.3124492117257418,0.30928559036431985,0.30716953573755407,0.3074178740252412,0.30957124534504354,0.31233125594852995,0.31380457296913195,0.3121159050731025,0.3060911235528866,0.2951915446607335,0.28014208548398895,0.26248436418825694,0.2441033267093123,0.2267217927633189,0.21130210179167336,0.19814396609709026,0.18675969282081425,0.17609074834552216,0.16481151831803975,0.15183126830973748,0.1366913340650709,0.1196140417720576,0.10140057137874169,0.08311711235596075,0.06586877418271721,0.05054808066852772,0.03755575143602088,0.02671039441196123,0.017278023351794673,0.008298855331313216,-0.001087918206885194,-0.011418655054495352,-0.02275329894352253,-0.03472233409907815,-0.04652687241869403,-0.057194135852858666,-0.06589630993631473,-0.07221699229900627,-0.07635686689984986,-0.07893917982935436,-0.08086826210455983,-0.08304376393204799,-0.08606682643854173,-0.09016701068928057,-0.09466387373568605,-0.09856621223250096,-0.10067459874823113,-0.09991666057807719,-0.09588277724637032,-0.08824556781272296,-0.07770233310757337,-0.0654677190964153,-0.05292615189036762,-0.04143422337108323,0.0,0.0,0.0,0.0,0.0,0.0,0.0,0.0,0.0,0.0,0.0,0.0,0.0,0.0,0.0,0.0,0.0,0.0,0.0,0.0,0.0,0.0,0.0,0.0,0.0,0.0,0.0,0.0,0.0,0.0,0.0,0.0,0.0,0.0,0.0,0.0,0.0,0.0,0.0,0.0,0.0,0.0,0.0,0.0,0.0,0.0,0.0,0.0,0.0,0.0,0.0,0.0,0.0,0.0,0.0,0.0,0.0,0.0,0.0,0.0,0.0,0.0,0.0,0.0,0.0,0.0,0.0,0.0,0.0,0.0,0.0,0.0,0.0,0.0,0.0,0.0,0.0,0.0,0.0,0.0,0.0,0.0,0.0,0.0,0.0,0.0,0.0,0.0,0.0,0.0,0.0,0.0,0.0,0.0,0.0,0.0,0.0,0.0,0.0,0.0,0.0,0.0,0.0,0.0,0.0,0.0,0.0,0.0,0.0,0.0,0.0,0.0,0.0,0.0,0.0,0.0,0.0,0.0,0.0,0.0,0.0,0.0,0.0,0.0,0.0,0.0,0.0,0.0,0.0,0.0,0.0,0.0,0.0,0.0,0.0,0.0,0.0,0.0,0.0,0.0,0.0,0.0,0.0,0.0,0.0,0.0,0.0,0.0,0.0,0.0,0.0,0.0,0.0,0.0,0.0,0.0,0.0,0.0,0.0,0.0,0.0,0.0,0.0,0.0,0.0,0.0,0.0,0.0,0.0,0.0,0.0,0.0,0.0,0.0,0.0,0.0,0.0,0.0,0.0,0.0,0.0,0.0,0.0,0.0,0.0,0.0,0.0,0.0,0.0,0.0,0.0,0.0,0.0,0.0,0.0,0.0,0.0,0.0,0.0,0.0,0.0,0.0,0.0,0.0,0.0,0.0,0.0,0.0,0.0,0.0,0.0,0.0,0.0,0.0,0.0,0.0,0.0,0.0,0.0,0.0,0.0,0.0,0.0,0.0,0.0,0.0,0.0,0.0,0.0,0.0,0.0,0.0,0.0,0.0,0.0,0.0,0.0,0.0,0.0
0.07419554003322562,0.09597885862269026,0.11647663460663686,0.13387564520508163,0.1467485396491301,0.15432672326910932,0.15655725122649589,0.1543298323306414,0.14887736468653026,0.1416522973009797,0.13404660899336096,0.1271057680777667,0.12159099891650696,0.11769322230759288,0.1152204935776431,0.11376649471761263,0.11285238922366501,0.11219212373076357,0.11162768780934164,0.1111461687870871,0.11079867311628361,0.11058790470703717,0.1104211270869756,0.11009459050071319,0.10932488629260159,0.10783085151495458,0.10544243518470507,0.10210040592894669,0.0980075739434908,0.09351999523870526,0.08903464803987077,0.08488392501928647,0.08112213915613996,0.07765249719478652,0.07417105423571883,0.07023844456478694,0.06543205500171821,0.059333955253337144,0.05185932731243653,0.043218176991235695,0.033882629948506375,0.024488759271163604,0.01568675169719963,0.008065539504015527,0.0019915731800936474,-0.0024731846677741877,-0.0056191586848460835,-0.007903381414624204,-0.009896804010041827,-0.012107751639556824,-0.014839108006645126,-0.01830382926537085,-0.021957480439757992,-0.025148776965567998,-0.02711816651834124,-0.027205031345516065,-0.025413530884385135,-0.021337996518547394,-0.015248476924529396,-0.007717971146471211,0.0004946369335548369,0.0,0.0,0.0,0.0,0.0,0.0,0.0,0.0,0.0,0.0,0.0,0.0,0.0,0.0,0.0,0.0,0.0,0.0,0.0,0.0,0.0,0.0,0.0,0.0,0.0,0.0,0.0,0.0,0.0,0.0,0.0,0.0,0.0,0.0,0.0,0.0,0.0,0.0,0.0,0.0,0.0,0.0,0.0,0.0,0.0,0.0,0.0,0.0,0.0,0.0,0.0,0.0,0.0,0.0,0.0,0.0,0.0,0.0,0.0,0.0,0.0,0.0,0.0,0.0,0.0,0.0,0.0,0.0,0.0,0.0,0.0,0.0,0.0,0.0,0.0,0.0,0.0,0.0,0.0,0.0,0.0,0.0,0.0,0.0,0.0,0.0,0.0,0.0,0.0,0.0,0.0,0.0,0.0,0.0,0.0,0.0,0.0,0.0,0.0,0.0,0.0,0.0,0.0,0.0,0.0,0.0,0.0,0.0,0.0,0.0,0.0,0.0,0.0,0.0,0.0,0.0,0.0,0.0,0.0,0.0,0.0,0.0,0.0,0.0,0.0,0.0,0.0,0.0,0.0,0.0,0.0,0.0,0.0,0.0,0.0,0.0,0.0,0.0,0.0,0.0,0.0,0.0,0.0,0.0,0.0,0.0,0.0,0.0,0.0,0.0,0.0,0.0,0.0,0.0,0.0,0.0,0.0,0.0,0.0,0.0,0.0,0.0,0.0,0.0,0.0,0.0,0.0,0.0,0.0,0.0,0.0,0.0,0.0,0.0,0.0,0.0,0.0,0.0,0.0,0.0,0.0,0.0,0.0,0.0,0.0,0.0,0.0,0.0,0.0,0.0,0.0,0.0,0.0,0.0,0.0,0.0,0.0,0.0,0.0,0.0,0.0,0.0,0.0,0.0,0.0,0.0,0.0,0.0,0.0,0.0,0.0,0.0,0.0,0.0,0.0,0.0,0.0,0.0,0.0,0.0,0.0,0.0,0.0,0.0,0.0,0.0,0.0,0.0,0.0,0.0,0.0,0.0,0.0,0.0,0.0,0.0,0.0,0.0,0.0
