0.4758457305640873,0.4674868303445033,0.45902232869470416,0.44972903931692854,0.44067806970404394,0.4319319365107771,0.42349519794327556,0.4153460986617647,0.4068703538732434,0.39898609751098224,0.39152068648206656,0.3841997337442735,0.3767802212070521,0.3686094571693048,0.36063037741402554,0.3528985575537604,0.3454277486147024,0.3382143437523395,0.33075099905880817,0.32384508821586716,0.31733708845199865,0.3109690356613843,0.3045094131792973,0.29739346742601436,0.2904299787627573,0.28366750670609286,0.27712369707055623,0.2708044826062551,0.2642979648005431,0.2582941216590646,0.25264854945791365,0.24712709775750694,0.24151920244861888,0.23535137512238424,0.22930579506256285,0.223425886439528,0.21773152821740285,0.21223392229098267,0.20660464820032182,0.20141919274988393,0.19654703081626163,0.19177866544818142,0.18692682050234138,0.1816045118880326,0.1763795061626721,0.17129275143716247,0.1663674284311622,0.1616197187137001,0.15679478703760408,0.15236349129141594,0.14820753057354066,0.14413957282626097,0.13999295409257898,0.13545606387981007,0.1309926980426435,0.126640466430073,0.12242480901225049,0.11836618947145787,0.11427437241305471,0.11052874444566853,0.10702382560549363,0.0,0.0,0.0,0.0,0.0,0.0,0.0,0.0,0.0,0.0,0.0,0.0,0.0,0.0,0.0,0.0,0.0,0.0,0.0,0.0,0.0,0.0,0.0,0.0,0.0,0.0,0.0,0.0,0.0,0.0,0.0,0.0,0.0,0.0,0.0,0.0,0.0,0.0,0.0,0.0,0.0,0.0,0.0,0.0,0.0,0.0,0.0,0.0,0.0,0.0,0.0,0.0,0.0,0.0,0.0,0.0,0.0,0.0,0.0,0.0,0.0,0.0,0.0,0.0,0.0,0.0,0.0,0.0,0.0,0.0,0.0,0.0,0.0,0.0,0.0,0.0,0.0,0.0,0.0,0.0,0.0,0.0,0.0,0.0,0.0,0.0,0.0,0.0,0.0,0.0,0.0,0.0,0.0,0.0,0.0,0.0,0.0,0.0,0.0,0.0,0.0,0.0,0.0,0.0,0.0,0.0,0.0,0.0,0.0,0.0,0.0,0.0,0.0,0.0,0.0,0.0,0.0,0.0,0.0,0.0,0.0,0.0,0.0,0.0,0.0,0.0,0.0,0.0,0.0,0.0,0.0,0.0,0.0,0.0,0.0,0.0,0.0,0.0,0.0,0.0,0.0,0.0,0.0,0.0,0.0,0.0,0.0,0.0,0.0,0.0,0.0,0.0,0.0,0.0,0.0,0.0,0.0,0.0,0.0,0.0,0.0,0.0,0.0,0.0,0.0,0.0,0.0,0.0,0.0,0.0,0.0,0.0,0.0,0.0,0.0,0.0,0.0,0.0,0.0,0.0,0.0,0.0,0.0,0.0,0.0,0.0,0.0,0.0,0.0,0.0,0.0,0.0,0.0,0.0,0.0,0.0,0.0,0.0,0.0,0.0,0.0,0.0,0.0,0.0,0.0,0.0,0.0,0.0,0.0,0.0,0.0,0.0,0.0,0.0,0.0,0.0,0.0,0.0,0.0,0.0,0.0,0.0,0.0,0.0,0.0,0.0,0.0,0.0,0.0,0.0,0.0,0.0,0.0,0.0,0.0,0.0,0.0,0.0,0.0
0.0066061468919793665,0.006536772287754897,0.0064735396753544325,0.006414216311145485,0.006356419906525899,0.006298393912418415,0.006230942924514488,0.006166144252003812,0.006104728774756801,0.0060465109971676815,0.005990640932857466,0.00592785900322836,0.005868245839481243,0.005810645619796516,0.005753434428866846,0.005695381669533494,0.0056285851978581805,0.005564615292775123,0.005504860777150438,0.005450007486933984,0.005400122406209521,0.005347527967101591,0.0053014990808202215,0.005260561133961211,0.005222269647639428,0.005184178580042623,0.0051378150986433335,0.00509248575529984,0.0050487299924255324,0.005007095856646515,0.004968234753875725,0.0049263575302171455,0.004891146063657599,0.0048622617295820325,0.0048379361152784415,0.004815678460584738,0.004786744169889397,0.00475828583929259,0.004728921331426856,0.0046974004133972114,0.004663122167293752,0.004620266775523432,0.00457867823333859,0.00453923322516652,0.004501886260050689,0.004466000482505915,0.004424973267793049,0.004386221325458359,0.004348494203184668,0.004309950639241427,0.0042688787977180785,0.004218909520120351,0.004167744076934539,0.004115713895484646,0.004063019263461039,0.004009986161109993,0.003952134878385136,0.0038975580544805023,0.0038464498514930666,0.0037980395657116668,0.0037510935245019077,0.0,0.0,0.0,0.0,0.0,0.0,0.0,0.0,0.0,0.0,0.0,0.0,0.0,0.0,0.0,0.0,0.0,0.0,0.0,0.0,0.0,0.0,0.0,0.0,0.0,0.0,0.0,0.0,0.0,0.0,0.0,0.0,0.0,0.0,0.0,0.0,0.0,0.0,0.0,0.0,0.0,0.0,0.0,0.0,0.0,0.0,0.0,0.0,0.0,0.0,0.0,0.0,0.0,0.0,0.0,0.0,0.0,0.0,0.0,0.0,0.0,0.0,0.0,0.0,0.0,0.0,0.0,0.0,0.0,0.0,0.0,0.0,0.0,0.0,0.0,0.0,0.0,0.0,0.0,0.0,0.0,0.0,0.0,0.0,0.0,0.0,0.0,0.0,0.0,0.0,0.0,0.0,0.0,0.0,0.0,0.0,0.0,0.0,0.0,0.0,0.0,0.0,0.0,0.0,0.0,0.0,0.0,0.0,0.0,0.0,0.0,0.0,0.0,0.0,0.0,0.0,0.0,0.0,0.0,0.0,0.0,0.0,0.0,0.0,0.0,0.0,0.0,0.0,0.0,0.0,0.0,0.0,0.0,0.0,0.0,0.0,0.0,0.0,0.0,0.0,0.0,0.0,0.0,0.0,0.0,0.0,0.0,0.0,0.0,0.0,0.0,0.0,0.0,0.0,0.0,0.0,0.0,0.0,0.0,0.0,0.0,0.0,0.0,0.0,0.0,0.0,0.0,0.0,0.0,0.0,0.0,0.0,0.0,0.0,0.0,0.0,0.0,0.0,0.0,0.0,0.0,0.0,0.0,0.0,0.0,0.0,0.0,0.0,0.0,0.0,0.0,0.0,0.0,0.0,0.0,0.0,0.0,0.0,0.0,0.0,0.0,0.0,0.0,0.0,0.0,0.0,0.0,0.0,0.0,0.0,0.0,0.0,0.0,0.0,0.0,0.0,0.0,0.0,0.0,0.0,0.0,0.0,0.0,0.0,0.0,0.0,0.0,0.0,0.0,0.0,0.0,0.0,0.0,0.0,0.0,0.0,0.0,0.0,0.0
0.00043044107869794887,0.0004025504925697449,0.00037011037896218454,0.0003332249685810621,0.00029308491753289454,0.00025128645855612664,0.00021186228465234998,0.00017754369376708602,0.00015041958824529126,0.00013162063237414455,0.00012071826795713595,0.00011764721978423589,0.00012021570301034289,0.00012567599705694298,0.00013141438558421844,0.00013522935415747426,0.00013698931883419018,0.00013651519819158966,0.00013428175682602214,0.00013120813879429234,0.0001282125541871086,0.00012670449269443503,0.00012683171399543308,0.00012813651311421938,0.00012982215938761734,0.00013106540675266059,0.00013172036798994997,0.00013141248511490915,0.00013016113706788295,0.00012843617998094231,0.0001271428388915936,0.00012738413316957278,0.00012951245497915987,0.00013333564985022764,0.00013818109335155852,0.0001431980818930989,0.00014758495802372944,0.00015022101275561966,0.00015035951740062525,0.00014792600672217473,0.00014373966695305012,0.000139269437551007,0.0001356216452663276,0.0001335509501441173,0.0001332254509464198,0.00013428255125501383,0.00013556610639622483,0.0001349324824768185,0.00012995598241529046,0.00011852489517066488,9.961347135027103e-05,7.314021614552911e-05,3.9921666129006595e-05,1.7352394213283204e-06,-3.893398638538554e-05,-7.895044862370694e-05,-0.00011588849889638357,-0.0001480901561228579,-0.0001748585911820418,-0.00019639286794143597,-0.00021309226820941243,0.0,0.0,0.0,0.0,0.0,0.0,0.0,0.0,0.0,0.0,0.0,0.0,0.0,0.0,0.0,0.0,0.0,0.0,0.0,0.0,0.0,0.0,0.0,0.0,0.0,0.0,0.0,0.0,0.0,0.0,0.0,0.0,0.0,0.0,0.0,0.0,0.0,0.0,0.0,0.0,0.0,0.0,0.0,0.0,0.0,0.0,0.0,0.0,0.0,0.0,0.0,0.0,0.0,0.0,0.0,0.0,0.0,0.0,0.0,0.0,0.0,0.0,0.0,0.0,0.0,0.0,0.0,0.0,0.0,0.0,0.0,0.0,0.0,0.0,0.0,0.0,0.0,0.0,0.0,0.0,0.0,0.0,0.0,0.0,0.0,0.0,0.0,0.0,0.0,0.0,0.0,0.0,0.0,0.0,0.0,0.0,0.0,0.0,0.0,0.0,0.0,0.0,0.0,0.0,0.0,0.0,0.0,0.0,0.0,0.0,0.0,0.0,0.0,0.0,0.0,0.0,0.0,0.0,0.0,0.0,0.0,0.0,0.0,0.0,0.0,0.0,0.0,0.0,0.0,0.0,0.0,0.0,0.0,0.0,0.0,0.0,0.0,0.0,0.0,0.0,0.0,0.0,0.0,0.0,0.0,0.0,0.0,0.0,0.0,0.0,0.0,0.0,0.0,0.0,0.0,0.0,0.0,0.0,0.0,0.0,0.0,0.0,0.0,0.0,0.0,0.0,0.0,0.0,0.0,0.0,0.0,0.0,0.0,0.0,0.0,0.0,0.0,0.0,0.0,0.0,0.0,0.0,0.0,0.0,0.0,0.0,0.0,0.0,0.0,0.0,0.0,0.0,0.0,0.0,0.0,0.0,0.0,0.0,0.0,0.0,0.0,0.0,0.0,0.0,0.0,0.0,0.0,0.0,0.0,0.0,0.0,0.0,0.0,0.0,0.0,0.0,0.0,0.0,0.0,0.0,0.0,0.0,0.0,0.0,0.0,0.0,0.0,0.0,0.0,0.0,0.0,0.0,0.0,0.0,0.0,0.0,0.0,0.0,0.0
7.314021614552911e-05,3.9921666129006595e-05,1.7352394213283204e-06,-3.893398638538554e-05,-7.895044862370694e-05,-0.00011588849889638357,-0.0001480901561228579,-0.0001748585911820418,-0.00019639286794143597,-0.00021309226820941243,-0.0002265290268763255,-0.000238265180828098,-0.0002496754521124551,-0.00026166504647424184,-0.0002740655034715416,-0.00028703260214059287,-0.0003003362970630543,-0.00031370683505369874,-0.0003269372250070477,-0.0003394345388017881,-0.00035161204399760136,-0.0003638883528830932,-0.0003766946500858849,-0.00039024638544315376,-0.00040388232801098187,-0.0004174670924698833,-0.00043055069078470616,-0.0004426906462259489,-0.0004535555458792599,-0.0004624926309967916,-0.00047000592982431933,-0.0004767356961430185,-0.0004834559600629645,-0.0004907835619535915,-0.0004983941778494354,-0.0005064159076665889,-0.0005144546176976565,-0.000521892425123529,-0.000528011578027923,-0.0005315962328268178,-0.0005326685732616636,-0.0005315382766785472,-0.0005289375283120359,-0.0005257995473763536,-0.0005224152049939961,-0.0005199211410459492,-0.000519041952027653,-0.0005202301470036644,-0.0005235875167247842,-0.0005282329005228191,-0.0005341640962165773,-0.0005411145736078444,-0.000548839102980577,-0.0005570540385181451,-0.0005649376569693526,-0.0005724414788382715,-0.0005792939500254548,-0.0005853282016620702,-0.000590520560311506,-0.0005947414336965778,-0.0005985636387830133,0.0,0.0,0.0,0.0,0.0,0.0,0.0,0.0,0.0,0.0,0.0,0.0,0.0,0.0,0.0,0.0,0.0,0.0,0.0,0.0,0.0,0.0,0.0,0.0,0.0,0.0,0.0,0.0,0.0,0.0,0.0,0.0,0.0,0.0,0.0,0.0,0.0,0.0,0.0,0.0,0.0,0.0,0.0,0.0,0.0,0.0,0.0,0.0,0.0,0.0,0.0,0.0,0.0,0.0,0.0,0.0,0.0,0.0,0.0,0.0,0.0,0.0,0.0,0.0,0.0,0.0,0.0,0.0,0.0,0.0,0.0,0.0,0.0,0.0,0.0,0.0,0.0,0.0,0.0,0.0,0.0,0.0,0.0,0.0,0.0,0.0,0.0,0.0,0.0,0.0,0.0,0.0,0.0,0.0,0.0,0.0,0.0,0.0,0.0,0.0,0.0,0.0,0.0,0.0,0.0,0.0,0.0,0.0,0.0,0.0,0.0,0.0,0.0,0.0,0.0,0.0,0.0,0.0,0.0,0.0,0.0,0.0,0.0,0.0,0.0,0.0,0.0,0.0,0.0,0.0,0.0,0.0,0.0,0.0,0.0,0.0,0.0,0.0,0.0,0.0,0.0,0.0,0.0,0.0,0.0,0.0,0.0,0.0,0.0,0.0,0.0,0.0,0.0,0.0,0.0,0.0,0.0,0.0,0.0,0.0,0.0,0.0,0.0,0.0,0.0,0.0,0.0,0.0,0.0,0.0,0.0,0.0,0.0,0.0,0.0,0.0,0.0,0.0,0.0,0.0,0.0,0.0,0.0,0.0,0.0,0.0,0.0,0.0,0.0,0.0,0.0,0.0,0.0,0.0,0.0,0.0,0.0,0.0,0.0,0.0,0.0,0.0,0.0,0.0,0.0,0.0,0.0,0.0,0.0,0.0,0.0,0.0,0.0,0.0,0.0,0.0,0.0,0.0,0.0,0.0,0.0,0.0,0.0,0.0,0.0,0.0,0.0,0.0,0.0,0.0,0.0,0.0,0.0,0.0,0.0,0.0,0.0,0.0,0.0
-0.0005411145736078444,-0.000548839102980577,-0.0005570540385181451,-0.0005649376569693526,-0.0005724414788382715,-0.0005792939500254548,-0.0005853282016620702,-0.000590520560311506,-0.0005947414336965778,-0.0005985636387830133,-0.000602328360970169,-0.0006063151830076223,-0.0006106551759707138,-0.0006149278290327187,-0.0006193420643072755,-0.0006236304515324684,-0.0006275130238838194,-0.0006307897916299216,-0.0006329343975635465,-0.0006345777033388227,-0.00063595561398406,-0.0006372858163739962,-0.0006386970988464014,-0.0006396586768205227,-0.0006407990218274591,-0.0006422017972977779,-0.0006440385778464486,-0.0006466044060628812,-0.0006496367085874066,-0.0006542633928713873,-0.0006607548344492503,-0.0006690057093758198,-0.0006784592142109297,-0.0006875079513050003,-0.0006958450529415851,-0.0007025997911379793,-0.0007073411630289626,-0.0007103140223589781,-0.0007118036765158043,-0.000714153489041299,-0.000719063598973504,-0.000727738697320121,-0.0007403336911971628,-0.0007549415024003108,-0.0007695288247711445,-0.0007800698105802499,-0.0007818501049635343,-0.0007703533600353476,-0.0007416612029412129,-0.0006951272845707572,-0.000631884111509303,-0.0005555546673228461,-0.0004718628734234745,-0.0003873429596610731,-0.00030992960731428737,-0.00024594692506523923,-0.00019979322172463594,-0.0001733723868116016,-0.00016555499984498618,-0.00017397547246266875,-0.00019396304674639857,0.0,0.0,0.0,0.0,0.0,0.0,0.0,0.0,0.0,0.0,0.0,0.0,0.0,0.0,0.0,0.0,0.0,0.0,0.0,0.0,0.0,0.0,0.0,0.0,0.0,0.0,0.0,0.0,0.0,0.0,0.0,0.0,0.0,0.0,0.0,0.0,0.0,0.0,0.0,0.0,0.0,0.0,0.0,0.0,0.0,0.0,0.0,0.0,0.0,0.0,0.0,0.0,0.0,0.0,0.0,0.0,0.0,0.0,0.0,0.0,0.0,0.0,0.0,0.0,0.0,0.0,0.0,0.0,0.0,0.0,0.0,0.0,0.0,0.0,0.0,0.0,0.0,0.0,0.0,0.0,0.0,0.0,0.0,0.0,0.0,0.0,0.0,0.0,0.0,0.0,0.0,0.0,0.0,0.0,0.0,0.0,0.0,0.0,0.0,0.0,0.0,0.0,0.0,0.0,0.0,0.0,0.0,0.0,0.0,0.0,0.0,0.0,0.0,0.0,0.0,0.0,0.0,0.0,0.0,0.0,0.0,0.0,0.0,0.0,0.0,0.0,0.0,0.0,0.0,0.0,0.0,0.0,0.0,0.0,0.0,0.0,0.0,0.0,0.0,0.0,0.0,0.0,0.0,0.0,0.0,0.0,0.0,0.0,0.0,0.0,0.0,0.0,0.0,0.0,0.0,0.0,0.0,0.0,0.0,0.0,0.0,0.0,0.0,0.0,0.0,0.0,0.0,0.0,0.0,0.0,0.0,0.0,0.0,0.0,0.0,0.0,0.0,0.0,0.0,0.0,0.0,0.0,0.0,0.0,0.0,0.0,0.0,0.0,0.0,0.0,0.0,0.0,0.0,0.0,0.0,0.0,0.0,0.0,0.0,0.0,0.0,0.0,0.0,0.0,0.0,0.0,0.0,0.0,0.0,0.0,0.0,0.0,0.0,0.0,0.0,0.0,0.0,0.0,0.0,0.0,0.0,0.0,0.0,0.0,0.0,0.0,0.0,0.0,0.0,0.0,0.0,0.0,0.0,0.0,0.0,0.0,0.0,0.0,0.0
-0.0005555546673228461,-0.0004718628734234745,-0.0003873429596610731,-0.00030992960731428737,-0.00024594692506523923,-0.00019979322172463594,-0.0001733723868116016,-0.00016555499984498618,-0.00017397547246266875,-0.00019396304674639857,-0.00022011682309841337,-0.0002473430942358178,-0.0002713332836742297,-0.00029050643817513073,-0.0003043880392219304,-0.0003139889066401584,-0.000321313801660034,-0.00032833982939821284,-0.00033769930365379905,-0.00035044796801113093,-0.0003664696127784325,-0.00038461486576040046,-0.00040266115677633124,-0.000419341068805024,-0.00043298058116873273,-0.00044255371702199597,-0.00044791592986076695,-0.0004493010952999663,-0.0004487594160137393,-0.0004477498636410827,-0.00044742347086717816,-0.00044834575045273745,-0.00044979109641728085,-0.000451820976702443,-0.0004532178744862999,-0.00045259229042600793,-0.00044877557104470794,-0.00044044171015057785,-0.00042860738204042323,-0.0004140364610970008,-0.0003978989073061115,-0.00038149650710432034,-0.00036519989034072706,-0.00035065011918298524,-0.00033786475996123506,-0.0003261308798791635,-0.00031421744316393273,-0.00029993428293838774,-0.00028317171281504216,-0.0002633854268658507,-0.00024075574978123484,-0.00021624003033519698,-0.00019078474045025698,-0.00016695137742711922,-0.00014641091904832524,-0.00013015866268042614,-0.00011826261750646123,-0.00010942257664643184,-0.00010256675389724374,-9.607070925656988e-05,-8.859428954918863e-05,0.0,0.0,0.0,0.0,0.0,0.0,0.0,0.0,0.0,0.0,0.0,0.0,0.0,0.0,0.0,0.0,0.0,0.0,0.0,0.0,0.0,0.0,0.0,0.0,0.0,0.0,0.0,0.0,0.0,0.0,0.0,0.0,0.0,0.0,0.0,0.0,0.0,0.0,0.0,0.0,0.0,0.0,0.0,0.0,0.0,0.0,0.0,0.0,0.0,0.0,0.0,0.0,0.0,0.0,0.0,0.0,0.0,0.0,0.0,0.0,0.0,0.0,0.0,0.0,0.0,0.0,0.0,0.0,0.0,0.0,0.0,0.0,0.0,0.0,0.0,0.0,0.0,0.0,0.0,0.0,0.0,0.0,0.0,0.0,0.0,0.0,0.0,0.0,0.0,0.0,0.0,0.0,0.0,0.0,0.0,0.0,0.0,0.0,0.0,0.0,0.0,0.0,0.0,0.0,0.0,0.0,0.0,0.0,0.0,0.0,0.0,0.0,0.0,0.0,0.0,0.0,0.0,0.0,0.0,0.0,0.0,0.0,0.0,0.0,0.0,0.0,0.0,0.0,0.0,0.0,0.0,0.0,0.0,0.0,0.0,0.0,0.0,0.0,0.0,0.0,0.0,0.0,0.0,0.0,0.0,0.0,0.0,0.0,0.0,0.0,0.0,0.0,0.0,0.0,0.0,0.0,0.0,0.0,0.0,0.0,0.0,0.0,0.0,0.0,0.0,0.0,0.0,0.0,0.0,0.0,0.0,0.0,0.0,0.0,0.0,0.0,0.0,0.0,0.0,0.0,0.0,0.0,0.0,0.0,0.0,0.0,0.0,0.0,0.0,0.0,0.0,0.0,0.0,0.0,0.0,0.0,0.0,0.0,0.0,0.0,0.0,0.0,0.0,0.0,0.0,0.0,0.0,0.0,0.0,0.0,0.0,0.0,0.0,0.0,0.0,0.0,0.0,0.0,0.0,0.0,0.0,0.0,0.0,0.0,0.0,0.0,0.0,0.0,0.0,0.0,0.0,0.0,0.0,0.0,0.0,0.0,0.0,0.0,0.0
-0.00021624003033519698,-0.00019078474045025698,-0.00016695137742711922,-0.00014641091904832524,-0.00013015866268042614,-0.00011826261750646123,-0.00010942257664643184,-0.00010256675389724374,-9.607070925656988e-05,-8.859428954918863e-05,-7.948344293179683e-05,-6.855154157486711e-05,-5.7406313825350586e-05,-4.784478666378507e-05,-4.177690759372953e-05,-4.070426835713245e-05,-4.487296486064364e-05,-5.446181570489e-05,-6.824775819171354e-05,-8.437915344353776e-05,-0.00010087119570750911,-0.00011567498114171384,-0.00012854343064677953,-0.00013964935052720556,-0.0001499835066329332,-0.00016103812305788578,-0.00017388730364735805,-0.00019028161492787532,-0.00021061726618805512,-0.00023434946266908248,-0.00026011230161726085,-0.00028562748257178494,-0.00030952728865747957,-0.0003302319194539111,-0.0003468137800753769,-0.0003591864801766359,-0.0003677184420504917,-0.0003742183934916421,-0.0003801249604830992,-0.00038660152551644723,-0.00039424905429058537,-0.00040269163873868943,-0.00041162229992680176,-0.0004198557551061712,-0.0004260914385008376,-0.0004293116284045348,-0.0004288710403475839,-0.0004253683802604028,-0.00041963297694062694,-0.00041279804057954756,-0.00040598650554458737,-0.00039979376727776667,-0.00039481365244876525,-0.00039080100151231856,-0.0003870533873353723,-0.00038266138268464,-0.0003765775070957914,-0.0003685568991894757,-0.00035861944575031564,-0.0003472259104561737,-0.00033513364843833275,0.0,0.0,0.0,0.0,0.0,0.0,0.0,0.0,0.0,0.0,0.0,0.0,0.0,0.0,0.0,0.0,0.0,0.0,0.0,0.0,0.0,0.0,0.0,0.0,0.0,0.0,0.0,0.0,0.0,0.0,0.0,0.0,0.0,0.0,0.0,0.0,0.0,0.0,0.0,0.0,0.0,0.0,0.0,0.0,0.0,0.0,0.0,0.0,0.0,0.0,0.0,0.0,0.0,0.0,0.0,0.0,0.0,0.0,0.0,0.0,0.0,0.0,0.0,0.0,0.0,0.0,0.0,0.0,0.0,0.0,0.0,0.0,0.0,0.0,0.0,0.0,0.0,0.0,0.0,0.0,0.0,0.0,0.0,0.0,0.0,0.0,0.0,0.0,0.0,0.0,0.0,0.0,0.0,0.0,0.0,0.0,0.0,0.0,0.0,0.0,0.0,0.0,0.0,0.0,0.0,0.0,0.0,0.0,0.0,0.0,0.0,0.0,0.0,0.0,0.0,0.0,0.0,0.0,0.0,0.0,0.0,0.0,0.0,0.0,0.0,0.0,0.0,0.0,0.0,0.0,0.0,0.0,0.0,0.0,0.0,0.0,0.0,0.0,0.0,0.0,0.0,0.0,0.0,0.0,0.0,0.0,0.0,0.0,0.0,0.0,0.0,0.0,0.0,0.0,0.0,0.0,0.0,0.0,0.0,0.0,0.0,0.0,0.0,0.0,0.0,0.0,0.0,0.0,0.0,0.0,0.0,0.0,0.0,0.0,0.0,0.0,0.0,0.0,0.0,0.0,0.0,0.0,0.0,0.0,0.0,0.0,0.0,0.0,0.0,0.0,0.0,0.0,0.0,0.0,0.0,0.0,0.0,0.0,0.0,0.0,0.0,0.0,0.0,0.0,0.0,0.0,0.0,0.0,0.0,0.0,0.0,0.0,0.0,0.0,0.0,0.0,0.0,0.0,0.0,0.0,0.0,0.0,0.0,0.0,0.0,0.0,0.0,0.0,0.0,0.0,0.0,0.0,0.0,0.0,0.0,0.0,0.0,0.0,0.0
-0.00039979376727776667,-0.00039481365244876525,-0.00039080100151231856,-0.0003870533873353723,-0.00038266138268464,-0.0003765775070957914,-0.0003685568991894757,-0.00035861944575031564,-0.0003472259104561737,-0.00033513364843833275,-0.00032297357744348246,-0.0003117151619063007,-0.0003019290273138176,-0.00029389282511888356,-0.00028760591419202543,-0.00028265326023681306,-0.00027893473041031876,-0.00027621206576783445,-0.0002742663998580986,-0.00027285759095990665,-0.00027143139110464827,-0.0002697882952476987,-0.00026741647162200987,-0.00026372110250134223,-0.0002581092677277878,-0.00024986018226951656,-0.00023905394402951057,-0.0002258772161057849,-0.0002108899826309783,-0.00019496445960742078,-0.00017888556819533984,-0.00016400258696369727,-0.00015107456522499532,-0.00014041316910026093,-0.00013181965148705368,-0.00012438208018053227,-0.0001175549146250601,-0.00011032875405985769,-0.00010191359660210788,-9.202667567699541e-05,-8.082615024847755e-05,-6.975783452322315e-05,-6.028701731196721e-05,-5.3990788510458556e-05,-5.2233699866937136e-05,-5.565349065245397e-05,-6.47464820176138e-05,-7.872590584932552e-05,-9.606127591433317e-05,-0.00011480536250188122,-0.00013283124800893533,-0.00014885749702223138,-0.00016178115141884415,-0.00017118843898505804,-0.00017737702513682534,-0.0001810993610696291,-0.0001837964777730887,-0.00018647889779600495,-0.00018979465258685583,-0.00019392466555379016,-0.00019858233272724332,0.0,0.0,0.0,0.0,0.0,0.0,0.0,0.0,0.0,0.0,0.0,0.0,0.0,0.0,0.0,0.0,0.0,0.0,0.0,0.0,0.0,0.0,0.0,0.0,0.0,0.0,0.0,0.0,0.0,0.0,0.0,0.0,0.0,0.0,0.0,0.0,0.0,0.0,0.0,0.0,0.0,0.0,0.0,0.0,0.0,0.0,0.0,0.0,0.0,0.0,0.0,0.0,0.0,0.0,0.0,0.0,0.0,0.0,0.0,0.0,0.0,0.0,0.0,0.0,0.0,0.0,0.0,0.0,0.0,0.0,0.0,0.0,0.0,0.0,0.0,0.0,0.0,0.0,0.0,0.0,0.0,0.0,0.0,0.0,0.0,0.0,0.0,0.0,0.0,0.0,0.0,0.0,0.0,0.0,0.0,0.0,0.0,0.0,0.0,0.0,0.0,0.0,0.0,0.0,0.0,0.0,0.0,0.0,0.0,0.0,0.0,0.0,0.0,0.0,0.0,0.0,0.0,0.0,0.0,0.0,0.0,0.0,0.0,0.0,0.0,0.0,0.0,0.0,0.0,0.0,0.0,0.0,0.0,0.0,0.0,0.0,0.0,0.0,0.0,0.0,0.0,0.0,0.0,0.0,0.0,0.0,0.0,0.0,0.0,0.0,0.0,0.0,0.0,0.0,0.0,0.0,0.0,0.0,0.0,0.0,0.0,0.0,0.0,0.0,0.0,0.0,0.0,0.0,0.0,0.0,0.0,0.0,0.0,0.0,0.0,0.0,0.0,0.0,0.0,0.0,0.0,0.0,0.0,0.0,0.0,0.0,0.0,0.0,0.0,0.0,0.0,0.0,0.0,0.0,0.0,0.0,0.0,0.0,0.0,0.0,0.0,0.0,0.0,0.0,0.0,0.0,0.0,0.0,0.0,0.0,0.0,0.0,0.0,0.0,0.0,0.0,0.0,0.0,0.0,0.0,0.0,0.0,0.0,0.0,0.0,0.0,0.0,0.0,0.0,0.0,0.0,0.0,0.0,0.0,0.0,0.0,0.0,0.0,0.0
-0.00014885749702223138,-0.00016178115141884415,-0.00017118843898505804,-0.00017737702513682534,-0.0001810993610696291,-0.0001837964777730887,-0.00018647889779600495,-0.00018979465258685583,-0.00019392466555379016,-0.00019858233272724332,-0.00020335633759446152,-0.00020739563106253437,-0.0002099163765157507,-0.000210472305970755,-0.00020917827955140738,-0.00020661817218876001,-0.00020343387017355516,-0.00020026594130268996,-0.0001975696568285842,-0.00019563784331136656,-0.0001942134014326381,-0.00019252834375993485,-0.0001896234058792632,-0.0001846670076864134,-0.00017747373311069326,-0.0001680410716775228,-0.0001567145736160003,-0.00014412403759988052,-0.0001310483803810163,-0.00011851748403960665,-0.0001069626879165801,-9.645570097443923e-05,-8.674545225021565e-05,-7.742975307561919e-05,-6.843398373877127e-05,-5.9355415168641196e-05,-4.9984203204310686e-05,-4.025295367022554e-05,-3.023740580668294e-05,-2.0367012957593318e-05,-1.0692735616304678e-05,-1.2610167011468245e-06,7.947286745867031e-06,1.6954941462253318e-05,2.55291162017491e-05,3.3721024689084556e-05,4.1508826610188904e-05,4.890095407235469e-05,5.5961939335704775e-05,6.273497343007321e-05,6.951758892035582e-05,7.67818592848042e-05,8.508915281201909e-05,9.496893720915622e-05,0.00010677517288226945,0.00012052363304413358,0.00013605811474990903,0.0001529235481272566,0.0001704138469880797,0.00018767981220783834,0.00020392674980256067,0.0,0.0,0.0,0.0,0.0,0.0,0.0,0.0,0.0,0.0,0.0,0.0,0.0,0.0,0.0,0.0,0.0,0.0,0.0,0.0,0.0,0.0,0.0,0.0,0.0,0.0,0.0,0.0,0.0,0.0,0.0,0.0,0.0,0.0,0.0,0.0,0.0,0.0,0.0,0.0,0.0,0.0,0.0,0.0,0.0,0.0,0.0,0.0,0.0,0.0,0.0,0.0,0.0,0.0,0.0,0.0,0.0,0.0,0.0,0.0,0.0,0.0,0.0,0.0,0.0,0.0,0.0,0.0,0.0,0.0,0.0,0.0,0.0,0.0,0.0,0.0,0.0,0.0,0.0,0.0,0.0,0.0,0.0,0.0,0.0,0.0,0.0,0.0,0.0,0.0,0.0,0.0,0.0,0.0,0.0,0.0,0.0,0.0,0.0,0.0,0.0,0.0,0.0,0.0,0.0,0.0,0.0,0.0,0.0,0.0,0.0,0.0,0.0,0.0,0.0,0.0,0.0,0.0,0.0,0.0,0.0,0.0,0.0,0.0,0.0,0.0,0.0,0.0,0.0,0.0,0.0,0.0,0.0,0.0,0.0,0.0,0.0,0.0,0.0,0.0,0.0,0.0,0.0,0.0,0.0,0.0,0.0,0.0,0.0,0.0,0.0,0.0,0.0,0.0,0.0,0.0,0.0,0.0,0.0,0.0,0.0,0.0,0.0,0.0,0.0,0.0,0.0,0.0,0.0,0.0,0.0,0.0,0.0,0.0,0.0,0.0,0.0,0.0,0.0,0.0,0.0,0.0,0.0,0.0,0.0,0.0,0.0,0.0,0.0,0.0,0.0,0.0,0.0,0.0,0.0,0.0,0.0,0.0,0.0,0.0,0.0,0.0,0.0,0.0,0.0,0.0,0.0,0.0,0.0,0.0,0.0,0.0,0.0,0.0,0.0,0.0,0.0,0.0,0.0,0.0,0.0,0.0,0.0,0.0,0.0,0.0,0.0,0.0,0.0,0.0,0.0,0.0,0.0,0.0,0.0,0.0,0.0,0.0,0.0
7.67818592848042e-05,8.508915281201909e-05,9.496893720915622e-05,0.00010677517288226945,0.00012052363304413358,0.00013605811474990903,0.0001529235481272566,0.0001704138469880797,0.00018767981220783834,0.00020392674980256067,0.00021884007451023236,0.00023259885683509174,0.0002458587567670032,0.0002595512323985381,0.0002746549127148068,0.0002920618842313254,0.00031212677136449146,0.00033442069370391716,0.0003576266382811298,0.0003798414868841707,0.0003991130449537776,0.0004138049680968984,0.0004229826306408312,0.0004265528751997389,0.00042541261302661153,0.000421270498522858,0.0004161003677777634,0.0004115839356065205,0.0004085337476660912,0.0004069473656096399,0.0004059883960253897,0.00040425129046025123,0.00040018524057220984,0.00039239869963357153,0.000380427093645802,0.0003646640043749565,0.0003462878703016724,0.0003269286615621944,0.0003080283544757807,0.00029098201966972035,0.0002764421928303149,0.00026428311899008095,0.00025367208255217894,0.00024308203946704813,0.00023138337498181246,0.00021765892310590174,0.0002016252272270455,0.00018373664433732115,0.00016482861467681395,0.00014673761804232736,0.00013125744530518885,0.00011994910719215497,0.00011380120612246331,0.00011270202153069265,0.00011638942634764039,0.00012374386280726595,0.00013328123786640175,0.00014345402501163247,0.00015262864518528793,0.00016026015891563384,0.0001660488288008796,0.0,0.0,0.0,0.0,0.0,0.0,0.0,0.0,0.0,0.0,0.0,0.0,0.0,0.0,0.0,0.0,0.0,0.0,0.0,0.0,0.0,0.0,0.0,0.0,0.0,0.0,0.0,0.0,0.0,0.0,0.0,0.0,0.0,0.0,0.0,0.0,0.0,0.0,0.0,0.0,0.0,0.0,0.0,0.0,0.0,0.0,0.0,0.0,0.0,0.0,0.0,0.0,0.0,0.0,0.0,0.0,0.0,0.0,0.0,0.0,0.0,0.0,0.0,0.0,0.0,0.0,0.0,0.0,0.0,0.0,0.0,0.0,0.0,0.0,0.0,0.0,0.0,0.0,0.0,0.0,0.0,0.0,0.0,0.0,0.0,0.0,0.0,0.0,0.0,0.0,0.0,0.0,0.0,0.0,0.0,0.0,0.0,0.0,0.0,0.0,0.0,0.0,0.0,0.0,0.0,0.0,0.0,0.0,0.0,0.0,0.0,0.0,0.0,0.0,0.0,0.0,0.0,0.0,0.0,0.0,0.0,0.0,0.0,0.0,0.0,0.0,0.0,0.0,0.0,0.0,0.0,0.0,0.0,0.0,0.0,0.0,0.0,0.0,0.0,0.0,0.0,0.0,0.0,0.0,0.0,0.0,0.0,0.0,0.0,0.0,0.0,0.0,0.0,0.0,0.0,0.0,0.0,0.0,0.0,0.0,0.0,0.0,0.0,0.0,0.0,0.0,0.0,0.0,0.0,0.0,0.0,0.0,0.0,0.0,0.0,0.0,0.0,0.0,0.0,0.0,0.0,0.0,0.0,0.0,0.0,0.0,0.0,0.0,0.0,0.0,0.0,0.0,0.0,0.0,0.0,0.0,0.0,0.0,0.0,0.0,0.0,0.0,0.0,0.0,0.0,0.0,0.0,0.0,0.0,0.0,0.0,0.0,0.0,0.0,0.0,0.0,0.0,0.0,0.0,0.0,0.0,0.0,0.0,0.0,0.0,0.0,0.0,0.0,0.0,0.0,0.0,0.0,0.0,0.0,0.0,0.0,0.0,0.0,0.0
0.00011994910719215497,0.00011380120612246331,0.00011270202153069265,0.00011638942634764039,0.00012374386280726595,0.00013328123786640175,0.00014345402501163247,0.00015262864518528793,0.00016026015891563384,0.0001660488288008796,0.00017016756486330312,0.0001731068439008016,0.00017517800012782528,0.00017728120017502445,0.00017976945816971075,0.00018272540258504615,0.00018600798227207005,0.00018901722626543739,0.00019193769853634697,0.00019459678388138735,0.0001969141127931876,0.0001989091206433385,0.0002002857098345422,0.00020167584559774396,0.0002031369518000643,0.00020463240619300127,0.00020608169734034936,0.00020683865380758976,0.00020766000663080994,0.00020880602718609647,0.00021058283095033484,0.00021325427403736017,0.00021614535617721996,0.00022010132937673894,0.00022509666587748237,0.00023093117251365142,0.0002372538250102921,0.00024294302268877937,0.0002482963879096762,0.00025313408108481255,0.00025741839420606155,0.000261253375983224,0.00026430928621974756,0.0002674696974075272,0.00027116968696430313,0.0002757377180738986,0.0002812611173590633,0.00028706283975258624,0.0002929388003520946,0.00029800650440976663,0.0003011624950707024,0.0003012688587349027,0.0002971083748896893,0.00028849370758799223,0.0002756530655784753,0.0002595062354125353,0.00024155865244035105,0.00022337112038695614,0.0002071099212073356,0.00019433457286012603,0.00018591826511887865,0.0,0.0,0.0,0.0,0.0,0.0,0.0,0.0,0.0,0.0,0.0,0.0,0.0,0.0,0.0,0.0,0.0,0.0,0.0,0.0,0.0,0.0,0.0,0.0,0.0,0.0,0.0,0.0,0.0,0.0,0.0,0.0,0.0,0.0,0.0,0.0,0.0,0.0,0.0,0.0,0.0,0.0,0.0,0.0,0.0,0.0,0.0,0.0,0.0,0.0,0.0,0.0,0.0,0.0,0.0,0.0,0.0,0.0,0.0,0.0,0.0,0.0,0.0,0.0,0.0,0.0,0.0,0.0,0.0,0.0,0.0,0.0,0.0,0.0,0.0,0.0,0.0,0.0,0.0,0.0,0.0,0.0,0.0,0.0,0.0,0.0,0.0,0.0,0.0,0.0,0.0,0.0,0.0,0.0,0.0,0.0,0.0,0.0,0.0,0.0,0.0,0.0,0.0,0.0,0.0,0.0,0.0,0.0,0.0,0.0,0.0,0.0,0.0,0.0,0.0,0.0,0.0,0.0,0.0,0.0,0.0,0.0,0.0,0.0,0.0,0.0,0.0,0.0,0.0,0.0,0.0,0.0,0.0,0.0,0.0,0.0,0.0,0.0,0.0,0.0,0.0,0.0,0.0,0.0,0.0,0.0,0.0,0.0,0.0,0.0,0.0,0.0,0.0,0.0,0.0,0.0,0.0,0.0,0.0,0.0,0.0,0.0,0.0,0.0,0.0,0.0,0.0,0.0,0.0,0.0,0.0,0.0,0.0,0.0,0.0,0.0,0.0,0.0,0.0,0.0,0.0,0.0,0.0,0.0,0.0,0.0,0.0,0.0,0.0,0.0,0.0,0.0,0.0,0.0,0.0,0.0,0.0,0.0,0.0,0.0,0.0,0.0,0.0,0.0,0.0,0.0,0.0,0.0,0.0,0.0,0.0,0.0,0.0,0.0,0.0,0.0,0.0,0.0,0.0,0.0,0.0,0.0,0.0,0.0,0.0,0.0,0.0,0.0,0.0,0.0,0.0,0.0,0.0,0.0,0.0,0.0,0.0,0.0,0.0
0.0003012688587349027,0.0002971083748896893,0.00028849370758799223,0.0002756530655784753,0.0002595062354125353,0.00024155865244035105,0.00022337112038695614,0.0002071099212073356,0.00019433457286012603,0.00018591826511887865,0.00018184844614579937,0.00018093297423676642,0.00018192173656230476,0.0001830089338152026,0.00018259813775378105,0.00017980160142316452,0.00017454386123939874,0.00016865546943440883,0.00016486639991810897,0.00016668432430345362,0.00017775475670052976,0.00020080660447123412,0.00023782191026540262,0.0002885522600349727,0.0003505612450194625,0.0004193909409882088,0.0004888231992391128,0.0005527814384883135,0.0006053786540763315,0.0006422021918343029,0.0006610271252758879,0.0006617685999952882,0.0006473953905226225,0.0006222355582476841,0.0005913784308869576,0.000559660298209793,0.0005304254334138584,0.0005061228755079756,0.0004870220996119969,0.00047183342768644903,0.00045829347114369814,0.00044352541584778866,0.00042595553933697503,0.00040460275166302983,0.00037965807713112197,0.00035237624543876106,0.00032439453242794135,0.00029828484964891346,0.00027594015386449413,0.0002585558088514512,0.000246459019733824,0.0002388890566913789,0.00023510117706143088,0.0002336710982901488,0.00023317797660173838,0.00023250237593520272,0.00023085971091777087,0.00022834533597670132,0.00022517598593835191,0.00022176291093717256,0.0002185457321365815,0.0,0.0,0.0,0.0,0.0,0.0,0.0,0.0,0.0,0.0,0.0,0.0,0.0,0.0,0.0,0.0,0.0,0.0,0.0,0.0,0.0,0.0,0.0,0.0,0.0,0.0,0.0,0.0,0.0,0.0,0.0,0.0,0.0,0.0,0.0,0.0,0.0,0.0,0.0,0.0,0.0,0.0,0.0,0.0,0.0,0.0,0.0,0.0,0.0,0.0,0.0,0.0,0.0,0.0,0.0,0.0,0.0,0.0,0.0,0.0,0.0,0.0,0.0,0.0,0.0,0.0,0.0,0.0,0.0,0.0,0.0,0.0,0.0,0.0,0.0,0.0,0.0,0.0,0.0,0.0,0.0,0.0,0.0,0.0,0.0,0.0,0.0,0.0,0.0,0.0,0.0,0.0,0.0,0.0,0.0,0.0,0.0,0.0,0.0,0.0,0.0,0.0,0.0,0.0,0.0,0.0,0.0,0.0,0.0,0.0,0.0,0.0,0.0,0.0,0.0,0.0,0.0,0.0,0.0,0.0,0.0,0.0,0.0,0.0,0.0,0.0,0.0,0.0,0.0,0.0,0.0,0.0,0.0,0.0,0.0,0.0,0.0,0.0,0.0,0.0,0.0,0.0,0.0,0.0,0.0,0.0,0.0,0.0,0.0,0.0,0.0,0.0,0.0,0.0,0.0,0.0,0.0,0.0,0.0,0.0,0.0,0.0,0.0,0.0,0.0,0.0,0.0,0.0,0.0,0.0,0.0,0.0,0.0,0.0,0.0,0.0,0.0,0.0,0.0,0.0,0.0,0.0,0.0,0.0,0.0,0.0,0.0,0.0,0.0,0.0,0.0,0.0,0.0,0.0,0.0,0.0,0.0,0.0,0.0,0.0,0.0,0.0,0.0,0.0,0.0,0.0,0.0,0.0,0.0,0.0,0.0,0.0,0.0,0.0,0.0,0.0,0.0,0.0,0.0,0.0,0.0,0.0,0.0,0.0,0.0,0.0,0.0,0.0,0.0,0.0,0.0,0.0,0.0,0.0,0.0,0.0,0.0,0.0,0.0
0.0002388890566913789,0.00023510117706143088,0.0002336710982901488,0.00023317797660173838,0.00023250237593520272,0.00023085971091777087,0.00022834533597670132,0.00022517598593835191,0.00022176291093717256,0.0002185457321365815,0.0002158264182243961,0.00021382437485102489,0.0002123565236913122,0.00021105606371586689,0.00020953626669243175,0.00020754930332186796,0.0002052405270256911,0.00020290838842452837,0.00020110320935891869,0.00020052680124828202,0.00020185390389611762,0.00020563738482072227,0.00021187154300877255,0.00022005843818782524,0.00022929258757554185,0.00023833077078502638,0.00024640321571240716,0.00025259840069564,0.0002564441861103859,0.00025805837390280165,0.00025788659165857806,0.0002575094996390147,0.00025785043887545774,0.0002594677829969957,0.00026240579823686675,0.00026589226482456147,0.00026944975866466576,0.0002716983699031637,0.0002711840351284212,0.00026675322257093174,0.0002575637718150763,0.00024428519749412556,0.0002277563890590732,0.00020926101446750077,0.0001902544831909316,0.0001718307498819089,0.0001551810175333661,0.00014043521399319042,0.00012700005820012739,0.00011375574381093146,9.926102704404494e-05,8.259765792449995e-05,6.308102024795335e-05,4.072356575664298e-05,1.6314378026253658e-05,-8.769239821660765e-06,-3.253911034159832e-05,-5.327126867760345e-05,-6.96738277892951e-05,-8.112698775842415e-05,-8.778784048545279e-05,0.0,0.0,0.0,0.0,0.0,0.0,0.0,0.0,0.0,0.0,0.0,0.0,0.0,0.0,0.0,0.0,0.0,0.0,0.0,0.0,0.0,0.0,0.0,0.0,0.0,0.0,0.0,0.0,0.0,0.0,0.0,0.0,0.0,0.0,0.0,0.0,0.0,0.0,0.0,0.0,0.0,0.0,0.0,0.0,0.0,0.0,0.0,0.0,0.0,0.0,0.0,0.0,0.0,0.0,0.0,0.0,0.0,0.0,0.0,0.0,0.0,0.0,0.0,0.0,0.0,0.0,0.0,0.0,0.0,0.0,0.0,0.0,0.0,0.0,0.0,0.0,0.0,0.0,0.0,0.0,0.0,0.0,0.0,0.0,0.0,0.0,0.0,0.0,0.0,0.0,0.0,0.0,0.0,0.0,0.0,0.0,0.0,0.0,0.0,0.0,0.0,0.0,0.0,0.0,0.0,0.0,0.0,0.0,0.0,0.0,0.0,0.0,0.0,0.0,0.0,0.0,0.0,0.0,0.0,0.0,0.0,0.0,0.0,0.0,0.0,0.0,0.0,0.0,0.0,0.0,0.0,0.0,0.0,0.0,0.0,0.0,0.0,0.0,0.0,0.0,0.0,0.0,0.0,0.0,0.0,0.0,0.0,0.0,0.0,0.0,0.0,0.0,0.0,0.0,0.0,0.0,0.0,0.0,0.0,0.0,0.0,0.0,0.0,0.0,0.0,0.0,0.0,0.0,0.0,0.0,0.0,0.0,0.0,0.0,0.0,0.0,0.0,0.0,0.0,0.0,0.0,0.0,0.0,0.0,0.0,0.0,0.0,0.0,0.0,0.0,0.0,0.0,0.0,0.0,0.0,0.0,0.0,0.0,0.0,0.0,0.0,0.0,0.0,0.0,0.0,0.0,0.0,0.0,0.0,0.0,0.0,0.0,0.0,0.0,0.0,0.0,0.0,0.0,0.0,0.0,0.0,0.0,0.0,0.0,0.0,0.0,0.0,0.0,0.0,0.0,0.0,0.0,0.0,0.0,0.0,0.0,0.0,0.0,0.0
8.259765792449995e-05,6.308102024795335e-05,4.072356575664298e-05,1.6314378026253658e-05,-8.769239821660765e-06,-3.253911034159832e-05,-5.327126867760345e-05,-6.96738277892951e-05,-8.112698775842415e-05,-8.778784048545279e-05,-9.035122132505468e-05,-9.01728389861511e-05,-8.877099344793955e-05,-8.74588967907487e-05,-8.711014410859758e-05,-8.78483763493316e-05,-8.950275094685034e-05,-9.163922935781516e-05,-9.379080582307325e-05,-9.572163472786761e-05,-9.729089670101945e-05,-9.884505490601163e-05,-0.0001008854895922075,-0.00010379763365220804,-0.00010751314135113297,-0.00011146285564869752,-0.00011471618054689294,-0.00011597872772343756,-0.00011380446148134284,-0.00010669544202773521,-9.392377399580576e-05,-7.569641973556862e-05,-5.315692621739252e-05,-2.8212308384326735e-05,-3.1071105867103756e-06,1.982725376470011e-05,3.8419032224249235e-05,5.114353069059937e-05,5.7379844712689384e-05,5.7458767916395285e-05,5.269582228267123e-05,4.467733623640419e-05,3.509989725626609e-05,2.545873380869078e-05,1.6744063590668417e-05,9.57800328485274e-06,3.799216023863023e-06,-1.2448410169018182e-06,-6.46237709530784e-06,-1.2859922811984806e-05,-2.0941489164234914e-05,-3.095769317271184e-05,-4.271520043601277e-05,-5.5614727895109096e-05,-6.887217044156496e-05,-8.136349237120097e-05,-9.204926601600333e-05,-0.00010005345083286717,-0.00010476707869491036,-0.00010599804579824848,-0.00010371170537539878,0.0,0.0,0.0,0.0,0.0,0.0,0.0,0.0,0.0,0.0,0.0,0.0,0.0,0.0,0.0,0.0,0.0,0.0,0.0,0.0,0.0,0.0,0.0,0.0,0.0,0.0,0.0,0.0,0.0,0.0,0.0,0.0,0.0,0.0,0.0,0.0,0.0,0.0,0.0,0.0,0.0,0.0,0.0,0.0,0.0,0.0,0.0,0.0,0.0,0.0,0.0,0.0,0.0,0.0,0.0,0.0,0.0,0.0,0.0,0.0,0.0,0.0,0.0,0.0,0.0,0.0,0.0,0.0,0.0,0.0,0.0,0.0,0.0,0.0,0.0,0.0,0.0,0.0,0.0,0.0,0.0,0.0,0.0,0.0,0.0,0.0,0.0,0.0,0.0,0.0,0.0,0.0,0.0,0.0,0.0,0.0,0.0,0.0,0.0,0.0,0.0,0.0,0.0,0.0,0.0,0.0,0.0,0.0,0.0,0.0,0.0,0.0,0.0,0.0,0.0,0.0,0.0,0.0,0.0,0.0,0.0,0.0,0.0,0.0,0.0,0.0,0.0,0.0,0.0,0.0,0.0,0.0,0.0,0.0,0.0,0.0,0.0,0.0,0.0,0.0,0.0,0.0,0.0,0.0,0.0,0.0,0.0,0.0,0.0,0.0,0.0,0.0,0.0,0.0,0.0,0.0,0.0,0.0,0.0,0.0,0.0,0.0,0.0,0.0,0.0,0.0,0.0,0.0,0.0,0.0,0.0,0.0,0.0,0.0,0.0,0.0,0.0,0.0,0.0,0.0,0.0,0.0,0.0,0.0,0.0,0.0,0.0,0.0,0.0,0.0,0.0,0.0,0.0,0.0,0.0,0.0,0.0,0.0,0.0,0.0,0.0,0.0,0.0,0.0,0.0,0.0,0.0,0.0,0.0,0.0,0.0,0.0,0.0,0.0,0.0,0.0,0.0,0.0,0.0,0.0,0.0,0.0,0.0,0.0,0.0,0.0,0.0,0.0,0.0,0.0,0.0,0.0,0.0,0.0,0.0,0.0,0.0,0.0,0.0
-3.095769317271184e-05,-4.271520043601277e-05,-5.5614727895109096e-05,-6.887217044156496e-05,-8.136349237120097e-05,-9.204926601600333e-05,-0.00010005345083286717,-0.00010476707869491036,-0.00010599804579824848,-0.00010371170537539878,-9.813054611765428e-05,-8.97493464669453e-05,-7.939266634190037e-05,-6.846525708902863e-05,-5.8480516915379034e-05,-5.1326148465947845e-05,-4.912140257284534e-05,-5.401825398889038e-05,-6.81437886812837e-05,-9.242850153365924e-05,-0.00012666723194886264,-0.00016918636866228564,-0.00021686585839784364,-0.0002657985724848668,-0.000310887755724697,-0.00034724818422885324,-0.0003709382656096508,-0.00037971346280679685,-0.0003738836797287873,-0.00035509194558467575,-0.0003266625933510194,-0.00029272774909157355,-0.00025742850198772626,-0.00022462111852357771,-0.00019609535615660556,-0.0001723437053387167,-0.00015255759289863505,-0.00013514354116865576,-0.00011879127557021477,-0.00010167413033724008,-8.288076082970433e-05,-6.226013551610137e-05,-4.034658324692081e-05,-1.8461300475807018e-05,2.587763503858539e-06,2.1994921460197617e-05,3.9310181044904594e-05,5.445037467481415e-05,6.73893496692922e-05,7.867506002517156e-05,8.881510853571496e-05,9.829045581902115e-05,0.00010749666157491371,0.00011659170523265038,0.0001259753456201588,0.00013607877359286046,0.00014742065990367445,0.0001605429484750133,0.0001758055277257138,0.0001934563955808275,0.00021345601761076002,0.0,0.0,0.0,0.0,0.0,0.0,0.0,0.0,0.0,0.0,0.0,0.0,0.0,0.0,0.0,0.0,0.0,0.0,0.0,0.0,0.0,0.0,0.0,0.0,0.0,0.0,0.0,0.0,0.0,0.0,0.0,0.0,0.0,0.0,0.0,0.0,0.0,0.0,0.0,0.0,0.0,0.0,0.0,0.0,0.0,0.0,0.0,0.0,0.0,0.0,0.0,0.0,0.0,0.0,0.0,0.0,0.0,0.0,0.0,0.0,0.0,0.0,0.0,0.0,0.0,0.0,0.0,0.0,0.0,0.0,0.0,0.0,0.0,0.0,0.0,0.0,0.0,0.0,0.0,0.0,0.0,0.0,0.0,0.0,0.0,0.0,0.0,0.0,0.0,0.0,0.0,0.0,0.0,0.0,0.0,0.0,0.0,0.0,0.0,0.0,0.0,0.0,0.0,0.0,0.0,0.0,0.0,0.0,0.0,0.0,0.0,0.0,0.0,0.0,0.0,0.0,0.0,0.0,0.0,0.0,0.0,0.0,0.0,0.0,0.0,0.0,0.0,0.0,0.0,0.0,0.0,0.0,0.0,0.0,0.0,0.0,0.0,0.0,0.0,0.0,0.0,0.0,0.0,0.0,0.0,0.0,0.0,0.0,0.0,0.0,0.0,0.0,0.0,0.0,0.0,0.0,0.0,0.0,0.0,0.0,0.0,0.0,0.0,0.0,0.0,0.0,0.0,0.0,0.0,0.0,0.0,0.0,0.0,0.0,0.0,0.0,0.0,0.0,0.0,0.0,0.0,0.0,0.0,0.0,0.0,0.0,0.0,0.0,0.0,0.0,0.0,0.0,0.0,0.0,0.0,0.0,0.0,0.0,0.0,0.0,0.0,0.0,0.0,0.0,0.0,0.0,0.0,0.0,0.0,0.0,0.0,0.0,0.0,0.0,0.0,0.0,0.0,0.0,0.0,0.0,0.0,0.0,0.0,0.0,0.0,0.0,0.0,0.0,0.0,0.0,0.0,0.0,0.0,0.0,0.0,0.0,0.0,0.0,0.0
9.829045581902115e-05,0.00010749666157491371,0.00011659170523265038,0.0001259753456201588,0.00013607877359286046,0.00014742065990367445,0.0001605429484750133,0.0001758055277257138,0.0001934563955808275,0.00021345601761076002,0.0002353693646913269,0.0002583634031574488,0.00028122538488269133,0.0003028904950512561,0.00032261253403194085,0.0003402145254855838,0.00035618385783988424,0.000371449663172981,0.0003874518753697435,0.00040550872983494693,0.00042638459198060996,0.00044991653155903623,0.00047481926829881233,0.0004989216603078936,0.0005197909310522736,0.0005351957551194407,0.0005436492052781882,0.0005448014379254115,0.0005393230690849218,0.0005292468304045772,0.0005171558997989214,0.0005054558668833313,0.000495650472621724,0.0004880431997778621,0.0004819116996082383,0.00047565193335881586,0.00046726252848847447,0.00045476989347571805,0.0004371451177176927,0.0004144586492135954,0.0003878744906336898,0.0003593459594349485,0.00033088401320690805,0.00030474229355072674,0.00028248145155518464,0.000264794564643206,0.00025142939038142256,0.00024099994790730727,0.00023233708239074304,0.0002240603298688537,0.0002151551230317735,0.00020518869024426924,0.00019404488838310519,0.00018277080766443543,0.00017248024724997391,0.00016427694552418522,0.00015894799010711592,0.00015646947535539587,0.0001568537451981878,0.0001593776704165026,0.00016305272120310894,0.0,0.0,0.0,0.0,0.0,0.0,0.0,0.0,0.0,0.0,0.0,0.0,0.0,0.0,0.0,0.0,0.0,0.0,0.0,0.0,0.0,0.0,0.0,0.0,0.0,0.0,0.0,0.0,0.0,0.0,0.0,0.0,0.0,0.0,0.0,0.0,0.0,0.0,0.0,0.0,0.0,0.0,0.0,0.0,0.0,0.0,0.0,0.0,0.0,0.0,0.0,0.0,0.0,0.0,0.0,0.0,0.0,0.0,0.0,0.0,0.0,0.0,0.0,0.0,0.0,0.0,0.0,0.0,0.0,0.0,0.0,0.0,0.0,0.0,0.0,0.0,0.0,0.0,0.0,0.0,0.0,0.0,0.0,0.0,0.0,0.0,0.0,0.0,0.0,0.0,0.0,0.0,0.0,0.0,0.0,0.0,0.0,0.0,0.0,0.0,0.0,0.0,0.0,0.0,0.0,0.0,0.0,0.0,0.0,0.0,0.0,0.0,0.0,0.0,0.0,0.0,0.0,0.0,0.0,0.0,0.0,0.0,0.0,0.0,0.0,0.0,0.0,0.0,0.0,0.0,0.0,0.0,0.0,0.0,0.0,0.0,0.0,0.0,0.0,0.0,0.0,0.0,0.0,0.0,0.0,0.0,0.0,0.0,0.0,0.0,0.0,0.0,0.0,0.0,0.0,0.0,0.0,0.0,0.0,0.0,0.0,0.0,0.0,0.0,0.0,0.0,0.0,0.0,0.0,0.0,0.0,0.0,0.0,0.0,0.0,0.0,0.0,0.0,0.0,0.0,0.0,0.0,0.0,0.0,0.0,0.0,0.0,0.0,0.0,0.0,0.0,0.0,0.0,0.0,0.0,0.0,0.0,0.0,0.0,0.0,0.0,0.0,0.0,0.0,0.0,0.0,0.0,0.0,0.0,0.0,0.0,0.0,0.0,0.0,0.0,0.0,0.0,0.0,0.0,0.0,0.0,0.0,0.0,0.0,0.0,0.0,0.0,0.0,0.0,0.0,0.0,0.0,0.0,0.0,0.0,0.0,0.0,0.0,0.0
0.00020518869024426924,0.00019404488838310519,0.00018277080766443543,0.00017248024724997391,0.00016427694552418522,0.00015894799010711592,0.00015646947535539587,0.0001568537451981878,0.0001593776704165026,0.00016305272120310894,0.00016688522627588328,0.0001698019646413423,0.00017182975658953267,0.00017305599138137302,0.00017387606668809043,0.00017482246244465068,0.00017602810786614492,0.00017821551534682125,0.00018135594558055688,0.0001851303143705589,0.00018907410461123123,0.0001921271321021341,0.0001948388681273205,0.00019736832073948872,0.00020006533635409996,0.00020332574677781178,0.00020649121462091,0.00021067367559650434,0.00021584967978222782,0.0002217443727542035,0.0002279259422849593,0.00023309479461976085,0.000237919181624005,0.00024250920729298626,0.0002472101999793656,0.0002525261377921068,0.0002582243529290594,0.0002656289848068039,0.00027510074355863303,0.00028663466963860885,0.0002997821381577326,0.00031300796782780224,0.0003257404236668686,0.0003365898502429932,0.0003441121695672577,0.00034703813852335845,0.00034402460291680265,0.00033539878335269943,0.00032181921661942036,0.0003046674973255496,0.00028584728079827096,0.00026699052486840014,0.000250483960117239,0.000237749162007326,0.00022931104077655227,0.00022465642307318353,0.00022190146798283783,0.00021946046202694864,0.00021537880545678025,0.00020824574553115748,0.00019769653545711067,0.0,0.0,0.0,0.0,0.0,0.0,0.0,0.0,0.0,0.0,0.0,0.0,0.0,0.0,0.0,0.0,0.0,0.0,0.0,0.0,0.0,0.0,0.0,0.0,0.0,0.0,0.0,0.0,0.0,0.0,0.0,0.0,0.0,0.0,0.0,0.0,0.0,0.0,0.0,0.0,0.0,0.0,0.0,0.0,0.0,0.0,0.0,0.0,0.0,0.0,0.0,0.0,0.0,0.0,0.0,0.0,0.0,0.0,0.0,0.0,0.0,0.0,0.0,0.0,0.0,0.0,0.0,0.0,0.0,0.0,0.0,0.0,0.0,0.0,0.0,0.0,0.0,0.0,0.0,0.0,0.0,0.0,0.0,0.0,0.0,0.0,0.0,0.0,0.0,0.0,0.0,0.0,0.0,0.0,0.0,0.0,0.0,0.0,0.0,0.0,0.0,0.0,0.0,0.0,0.0,0.0,0.0,0.0,0.0,0.0,0.0,0.0,0.0,0.0,0.0,0.0,0.0,0.0,0.0,0.0,0.0,0.0,0.0,0.0,0.0,0.0,0.0,0.0,0.0,0.0,0.0,0.0,0.0,0.0,0.0,0.0,0.0,0.0,0.0,0.0,0.0,0.0,0.0,0.0,0.0,0.0,0.0,0.0,0.0,0.0,0.0,0.0,0.0,0.0,0.0,0.0,0.0,0.0,0.0,0.0,0.0,0.0,0.0,0.0,0.0,0.0,0.0,0.0,0.0,0.0,0.0,0.0,0.0,0.0,0.0,0.0,0.0,0.0,0.0,0.0,0.0,0.0,0.0,0.0,0.0,0.0,0.0,0.0,0.0,0.0,0.0,0.0,0.0,0.0,0.0,0.0,0.0,0.0,0.0,0.0,0.0,0.0,0.0,0.0,0.0,0.0,0.0,0.0,0.0,0.0,0.0,0.0,0.0,0.0,0.0,0.0,0.0,0.0,0.0,0.0,0.0,0.0,0.0,0.0,0.0,0.0,0.0,0.0,0.0,0.0,0.0,0.0,0.0,0.0,0.0,0.0,0.0,0.0,0.0
0.00026699052486840014,0.000250483960117239,0.000237749162007326,0.00022931104077655227,0.00022465642307318353,0.00022190146798283783,0.00021946046202694864,0.00021537880545678025,0.00020824574553115748,0.00019769653545711067,0.00018427429443079678,0.00017089595740966352,0.00016131454275559822,0.0001598833308759918,0.00017073664784103787,0.00019642680117937066,0.00023868032037474628,0.00029658795448176095,0.00036688776460712977,0.00044428775317554675,0.0005216362301288086,0.0005926213849169326,0.0006513494423410514,0.0006936877965350496,0.0007178388585100555,0.0007238615448602396,0.0007152456378180601,0.000696541277327175,0.0006728568903800424,0.0006488353255373526,0.0006271759106590858,0.0006101258274013978,0.0005976707180797727,0.0005883483901882601,0.0005798317925646495,0.0005689780142987608,0.0005545537489701896,0.0005358605810093264,0.0005134043566040628,0.0004887059771644236,0.00046326733763240886,0.000439938737847352,0.0004206302533784027,0.0004064592413804532,0.0003975801617641975,0.00039270153749471797,0.00039110076292167556,0.0003912793216690468,0.0003918647820713783,0.00039190548527888853,0.0003905657622332565,0.0003885699851005802,0.00038662228910966127,0.00038558988351768294,0.0003862308087935795,0.0003886063265319604,0.000393116954365062,0.00039937297532117804,0.00040665620185042904,0.00041412462154438696,0.0004207344791549886,0.0,0.0,0.0,0.0,0.0,0.0,0.0,0.0,0.0,0.0,0.0,0.0,0.0,0.0,0.0,0.0,0.0,0.0,0.0,0.0,0.0,0.0,0.0,0.0,0.0,0.0,0.0,0.0,0.0,0.0,0.0,0.0,0.0,0.0,0.0,0.0,0.0,0.0,0.0,0.0,0.0,0.0,0.0,0.0,0.0,0.0,0.0,0.0,0.0,0.0,0.0,0.0,0.0,0.0,0.0,0.0,0.0,0.0,0.0,0.0,0.0,0.0,0.0,0.0,0.0,0.0,0.0,0.0,0.0,0.0,0.0,0.0,0.0,0.0,0.0,0.0,0.0,0.0,0.0,0.0,0.0,0.0,0.0,0.0,0.0,0.0,0.0,0.0,0.0,0.0,0.0,0.0,0.0,0.0,0.0,0.0,0.0,0.0,0.0,0.0,0.0,0.0,0.0,0.0,0.0,0.0,0.0,0.0,0.0,0.0,0.0,0.0,0.0,0.0,0.0,0.0,0.0,0.0,0.0,0.0,0.0,0.0,0.0,0.0,0.0,0.0,0.0,0.0,0.0,0.0,0.0,0.0,0.0,0.0,0.0,0.0,0.0,0.0,0.0,0.0,0.0,0.0,0.0,0.0,0.0,0.0,0.0,0.0,0.0,0.0,0.0,0.0,0.0,0.0,0.0,0.0,0.0,0.0,0.0,0.0,0.0,0.0,0.0,0.0,0.0,0.0,0.0,0.0,0.0,0.0,0.0,0.0,0.0,0.0,0.0,0.0,0.0,0.0,0.0,0.0,0.0,0.0,0.0,0.0,0.0,0.0,0.0,0.0,0.0,0.0,0.0,0.0,0.0,0.0,0.0,0.0,0.0,0.0,0.0,0.0,0.0,0.0,0.0,0.0,0.0,0.0,0.0,0.0,0.0,0.0,0.0,0.0,0.0,0.0,0.0,0.0,0.0,0.0,0.0,0.0,0.0,0.0,0.0,0.0,0.0,0.0,0.0,0.0,0.0,0.0,0.0,0.0,0.0,0.0,0.0,0.0,0.0,0.0,0.0
0.0003885699851005802,0.00038662228910966127,0.00038558988351768294,0.0003862308087935795,0.0003886063265319604,0.000393116954365062,0.00039937297532117804,0.00040665620185042904,0.00041412462154438696,0.0004207344791549886,0.0004264685835635062,0.00043147124239417716,0.0004363464445472039,0.0004420184342951944,0.00044921199407772864,0.0004590274862558168,0.0004718207990240969,0.0004872960712056158,0.0005044980978532554,0.0005215721879333215,0.0005374753969574964,0.0005508067302417294,0.0005606824124920152,0.0005669777614113162,0.0005698083752485628,0.0005712520002559858,0.0005727226082315042,0.0005753305089150115,0.0005795655365765956,0.0005846161906366734,0.0005901550057558703,0.000594499927808575,0.0005957224198363855,0.0005921533117418749,0.000582356806693879,0.0005669969602140637,0.0005469832303409804,0.000523906185127624,0.0004997037588782477,0.00047584306800919473,0.0004543475778447939,0.00043593002885527576,0.0004204848411022688,0.0004072542060146204,0.00039477540507975613,0.0003824297995521283,0.0003693856360127561,0.00035525145222989676,0.00034014989729202035,0.00032428748831481917,0.0003089749845904333,0.00029502677386166457,0.00028299467892679495,0.0002730455885694203,0.0002645852092573751,0.0002575605515115143,0.00025126894588483917,0.000245014755901978,0.0002383160372693549,0.00023063363377167793,0.00022275968950230703,0.0,0.0,0.0,0.0,0.0,0.0,0.0,0.0,0.0,0.0,0.0,0.0,0.0,0.0,0.0,0.0,0.0,0.0,0.0,0.0,0.0,0.0,0.0,0.0,0.0,0.0,0.0,0.0,0.0,0.0,0.0,0.0,0.0,0.0,0.0,0.0,0.0,0.0,0.0,0.0,0.0,0.0,0.0,0.0,0.0,0.0,0.0,0.0,0.0,0.0,0.0,0.0,0.0,0.0,0.0,0.0,0.0,0.0,0.0,0.0,0.0,0.0,0.0,0.0,0.0,0.0,0.0,0.0,0.0,0.0,0.0,0.0,0.0,0.0,0.0,0.0,0.0,0.0,0.0,0.0,0.0,0.0,0.0,0.0,0.0,0.0,0.0,0.0,0.0,0.0,0.0,0.0,0.0,0.0,0.0,0.0,0.0,0.0,0.0,0.0,0.0,0.0,0.0,0.0,0.0,0.0,0.0,0.0,0.0,0.0,0.0,0.0,0.0,0.0,0.0,0.0,0.0,0.0,0.0,0.0,0.0,0.0,0.0,0.0,0.0,0.0,0.0,0.0,0.0,0.0,0.0,0.0,0.0,0.0,0.0,0.0,0.0,0.0,0.0,0.0,0.0,0.0,0.0,0.0,0.0,0.0,0.0,0.0,0.0,0.0,0.0,0.0,0.0,0.0,0.0,0.0,0.0,0.0,0.0,0.0,0.0,0.0,0.0,0.0,0.0,0.0,0.0,0.0,0.0,0.0,0.0,0.0,0.0,0.0,0.0,0.0,0.0,0.0,0.0,0.0,0.0,0.0,0.0,0.0,0.0,0.0,0.0,0.0,0.0,0.0,0.0,0.0,0.0,0.0,0.0,0.0,0.0,0.0,0.0,0.0,0.0,0.0,0.0,0.0,0.0,0.0,0.0,0.0,0.0,0.0,0.0,0.0,0.0,0.0,0.0,0.0,0.0,0.0,0.0,0.0,0.0,0.0,0.0,0.0,0.0,0.0,0.0,0.0,0.0,0.0,0.0,0.0,0.0,0.0,0.0,0.0,0.0,0.0,0.0
0.00029502677386166457,0.00028299467892679495,0.0002730455885694203,0.0002645852092573751,0.0002575605515115143,0.00025126894588483917,0.000245014755901978,0.0002383160372693549,0.00023063363377167793,0.00022275968950230703,0.00021523272512073637,0.00020866861734756577,0.0002035864859692895,0.00019980806800849247,0.0001978868233892169,0.00019747878747610893,0.00019798539823446767,0.00019873333261984235,0.00019871192411074131,0.00019820995030555004,0.00019714930282062573,0.00019563196376183215,0.00019388017927039525,0.0001917130134257976,0.0001899703619298672,0.00018868334896400633,0.00018770678061543153,0.0001868201228951352,0.00018541197361600996,0.0001840338806214079,0.00018264656042119934,0.0001812249286970204,0.0001797600665198752,0.00017783653842945988,0.00017607415300449828,0.00017436676816077082,0.00017254870756711144,0.0001705009092800786,0.00016766443843633372,0.0001649698077509648,0.0001627905446081795,0.00016147729446517434,0.00016124175204028203,0.00016132724957067932,0.00016232343773351466,0.00016397377482862307,0.00016592727885717193,0.00016784236485602145,0.0001688568295649386,0.00016963929155824052,0.0001705096773842733,0.00017194029417527882,0.00017444297767176087,0.00017792467707081737,0.00018320598667337246,0.00019039860109727267,0.00019931388546470108,0.0002094460866990458,0.0002195491828921698,0.00022910725807687884,0.00023709618765274087,0.0,0.0,0.0,0.0,0.0,0.0,0.0,0.0,0.0,0.0,0.0,0.0,0.0,0.0,0.0,0.0,0.0,0.0,0.0,0.0,0.0,0.0,0.0,0.0,0.0,0.0,0.0,0.0,0.0,0.0,0.0,0.0,0.0,0.0,0.0,0.0,0.0,0.0,0.0,0.0,0.0,0.0,0.0,0.0,0.0,0.0,0.0,0.0,0.0,0.0,0.0,0.0,0.0,0.0,0.0,0.0,0.0,0.0,0.0,0.0,0.0,0.0,0.0,0.0,0.0,0.0,0.0,0.0,0.0,0.0,0.0,0.0,0.0,0.0,0.0,0.0,0.0,0.0,0.0,0.0,0.0,0.0,0.0,0.0,0.0,0.0,0.0,0.0,0.0,0.0,0.0,0.0,0.0,0.0,0.0,0.0,0.0,0.0,0.0,0.0,0.0,0.0,0.0,0.0,0.0,0.0,0.0,0.0,0.0,0.0,0.0,0.0,0.0,0.0,0.0,0.0,0.0,0.0,0.0,0.0,0.0,0.0,0.0,0.0,0.0,0.0,0.0,0.0,0.0,0.0,0.0,0.0,0.0,0.0,0.0,0.0,0.0,0.0,0.0,0.0,0.0,0.0,0.0,0.0,0.0,0.0,0.0,0.0,0.0,0.0,0.0,0.0,0.0,0.0,0.0,0.0,0.0,0.0,0.0,0.0,0.0,0.0,0.0,0.0,0.0,0.0,0.0,0.0,0.0,0.0,0.0,0.0,0.0,0.0,0.0,0.0,0.0,0.0,0.0,0.0,0.0,0.0,0.0,0.0,0.0,0.0,0.0,0.0,0.0,0.0,0.0,0.0,0.0,0.0,0.0,0.0,0.0,0.0,0.0,0.0,0.0,0.0,0.0,0.0,0.0,0.0,0.0,0.0,0.0,0.0,0.0,0.0,0.0,0.0,0.0,0.0,0.0,0.0,0.0,0.0,0.0,0.0,0.0,0.0,0.0,0.0,0.0,0.0,0.0,0.0,0.0,0.0,0.0,0.0,0.0,0.0,0.0,0.0,0.0
0.00017194029417527882,0.00017444297767176087,0.00017792467707081737,0.00018320598667337246,0.00019039860109727267,0.00019931388546470108,0.0002094460866990458,0.0002195491828921698,0.00022910725807687884,0.00023709618765274087,0.00024250028366684022,0.0002444491957263307,0.00024198943587472045,0.00023540274243093407,0.0002251603422088817,0.0002122487750804319,0.0001980479123807577,0.00018374172303207403,0.0001711815892777398,0.00016148054773240786,0.00015508566345740065,0.0001516466290351846,0.00014970992637927295,0.00014808959875739383,0.00014519856875012282,0.00013984148823264702,0.00013165453363685441,0.00012101958167033987,0.00011036069015972892,0.00010280845339843445,0.00010205325441596352,0.00011166243823852415,0.000133909039059878,0.00017042194743915697,0.00022054929132423584,0.00028158195320311387,0.00034899405721389035,0.00041656685969150147,0.0004786815075648222,0.0005299673951760658,0.0005664941486238478,0.0005863256761892566,0.000589199383653181,0.000577910578428229,0.0005563894584334712,0.0005292860636924226,0.0005010812328352737,0.00047479009743401837,0.00045305948439364435,0.00043660094511369015,0.0004247424627639406,0.0004158367894812911,0.0004072929627451939,0.0003977794164403635,0.00038624331489534904,0.0003725194377305089,0.0003572667954073261,0.0003412245576222314,0.0003262960964651623,0.00031380264638399273,0.0003045577405036238,0.0,0.0,0.0,0.0,0.0,0.0,0.0,0.0,0.0,0.0,0.0,0.0,0.0,0.0,0.0,0.0,0.0,0.0,0.0,0.0,0.0,0.0,0.0,0.0,0.0,0.0,0.0,0.0,0.0,0.0,0.0,0.0,0.0,0.0,0.0,0.0,0.0,0.0,0.0,0.0,0.0,0.0,0.0,0.0,0.0,0.0,0.0,0.0,0.0,0.0,0.0,0.0,0.0,0.0,0.0,0.0,0.0,0.0,0.0,0.0,0.0,0.0,0.0,0.0,0.0,0.0,0.0,0.0,0.0,0.0,0.0,0.0,0.0,0.0,0.0,0.0,0.0,0.0,0.0,0.0,0.0,0.0,0.0,0.0,0.0,0.0,0.0,0.0,0.0,0.0,0.0,0.0,0.0,0.0,0.0,0.0,0.0,0.0,0.0,0.0,0.0,0.0,0.0,0.0,0.0,0.0,0.0,0.0,0.0,0.0,0.0,0.0,0.0,0.0,0.0,0.0,0.0,0.0,0.0,0.0,0.0,0.0,0.0,0.0,0.0,0.0,0.0,0.0,0.0,0.0,0.0,0.0,0.0,0.0,0.0,0.0,0.0,0.0,0.0,0.0,0.0,0.0,0.0,0.0,0.0,0.0,0.0,0.0,0.0,0.0,0.0,0.0,0.0,0.0,0.0,0.0,0.0,0.0,0.0,0.0,0.0,0.0,0.0,0.0,0.0,0.0,0.0,0.0,0.0,0.0,0.0,0.0,0.0,0.0,0.0,0.0,0.0,0.0,0.0,0.0,0.0,0.0,0.0,0.0,0.0,0.0,0.0,0.0,0.0,0.0,0.0,0.0,0.0,0.0,0.0,0.0,0.0,0.0,0.0,0.0,0.0,0.0,0.0,0.0,0.0,0.0,0.0,0.0,0.0,0.0,0.0,0.0,0.0,0.0,0.0,0.0,0.0,0.0,0.0,0.0,0.0,0.0,0.0,0.0,0.0,0.0,0.0,0.0,0.0,0.0,0.0,0.0,0.0,0.0,0.0,0.0,0.0,0.0,0.0
0.0004158367894812911,0.0004072929627451939,0.0003977794164403635,0.00038624331489534904,0.0003725194377305089,0.0003572667954073261,0.0003412245576222314,0.0003262960964651623,0.00031380264638399273,0.0003045577405036238,0.0002986968013333612,0.00029527908897730454,0.00029378477904219225,0.00029313046994685195,0.00029235683458753734,0.00029087268616549456,0.00028826323597026224,0.00028530462795297136,0.000282828434034781,0.00028179738658065206,0.00028304857099762797,0.0002868420093320202,0.00029345664479454576,0.0003024460988208725,0.000312964042997435,0.0003239666025014355,0.00033427670522559764,0.0003434410763755158,0.00035129003666470456,0.0003581764091586706,0.00036488463400524294,0.0003722610445971476,0.00038141160836887607,0.00039290829598616383,0.00040673097748950194,0.0004222037931966161,0.0004378200882251587,0.00045252057995951236,0.0004649085940743605,0.0004740055328338692,0.0004795229523879893,0.0004815098713089642,0.0004817225169815001,0.0004814964794285367,0.00048197737362280237,0.00048379540963336724,0.00048648342064067654,0.0004897828089291866,0.0004922582479410266,0.0004921954976386266,0.0004880678668787451,0.00047862558721048666,0.00046428832350057576,0.0004458459091059877,0.00042472932329224957,0.0004026883281652984,0.0003811149903974776,0.0003616489200327972,0.0003448029555615804,0.00033031227392492536,0.00031730878945185163,0.0,0.0,0.0,0.0,0.0,0.0,0.0,0.0,0.0,0.0,0.0,0.0,0.0,0.0,0.0,0.0,0.0,0.0,0.0,0.0,0.0,0.0,0.0,0.0,0.0,0.0,0.0,0.0,0.0,0.0,0.0,0.0,0.0,0.0,0.0,0.0,0.0,0.0,0.0,0.0,0.0,0.0,0.0,0.0,0.0,0.0,0.0,0.0,0.0,0.0,0.0,0.0,0.0,0.0,0.0,0.0,0.0,0.0,0.0,0.0,0.0,0.0,0.0,0.0,0.0,0.0,0.0,0.0,0.0,0.0,0.0,0.0,0.0,0.0,0.0,0.0,0.0,0.0,0.0,0.0,0.0,0.0,0.0,0.0,0.0,0.0,0.0,0.0,0.0,0.0,0.0,0.0,0.0,0.0,0.0,0.0,0.0,0.0,0.0,0.0,0.0,0.0,0.0,0.0,0.0,0.0,0.0,0.0,0.0,0.0,0.0,0.0,0.0,0.0,0.0,0.0,0.0,0.0,0.0,0.0,0.0,0.0,0.0,0.0,0.0,0.0,0.0,0.0,0.0,0.0,0.0,0.0,0.0,0.0,0.0,0.0,0.0,0.0,0.0,0.0,0.0,0.0,0.0,0.0,0.0,0.0,0.0,0.0,0.0,0.0,0.0,0.0,0.0,0.0,0.0,0.0,0.0,0.0,0.0,0.0,0.0,0.0,0.0,0.0,0.0,0.0,0.0,0.0,0.0,0.0,0.0,0.0,0.0,0.0,0.0,0.0,0.0,0.0,0.0,0.0,0.0,0.0,0.0,0.0,0.0,0.0,0.0,0.0,0.0,0.0,0.0,0.0,0.0,0.0,0.0,0.0,0.0,0.0,0.0,0.0,0.0,0.0,0.0,0.0,0.0,0.0,0.0,0.0,0.0,0.0,0.0,0.0,0.0,0.0,0.0,0.0,0.0,0.0,0.0,0.0,0.0,0.0,0.0,0.0,0.0,0.0,0.0,0.0,0.0,0.0,0.0,0.0,0.0,0.0,0.0,0.0,0.0,0.0,0.0
0.00047862558721048666,0.00046428832350057576,0.0004458459091059877,0.00042472932329224957,0.0004026883281652984,0.0003811149903974776,0.0003616489200327972,0.0003448029555615804,0.00033031227392492536,0.00031730878945185163,0.0003043999642083544,0.00029082940238606787,0.0002758430453765855,0.00025921450891382467,0.00024130784231928858,0.00022274814775611362,0.00020498920091279832,0.0001890938865397421,0.00017578863892553316,0.00016530689518672552,0.00015713170023372758,0.00015088476229499874,0.00014561752932892524,0.00014038880370425053,0.00013453402034641188,0.00012756835705325106,0.00012020924079229463,0.00011318825087482203,0.00010741983755623915,0.00010376114550609826,0.00010244346489255653,0.00010406454804793634,0.00010826610293624932,0.0001142479884660224,0.00012097096044406365,0.00012704280699351656,0.0001321443513464674,0.00013576814021515237,0.00013773639986450702,0.00013818077538202905,0.0001370860170189545,0.0001354498865980982,0.00013366005678466003,0.00013194972001550085,0.00013041154812579067,0.0001287024600951828,0.00012727263127392194,0.00012595316736241144,0.00012449643673339596,0.0001226423208695523,0.00011987370660128545,0.00011655747328857188,0.0001126061267330987,0.00010801474091324811,0.00010292740077974671,9.733550536426411e-05,9.21685770814862e-05,8.789640270810586e-05,8.486348991381509e-05,8.321248068994114e-05,8.249653319651391e-05,0.0,0.0,0.0,0.0,0.0,0.0,0.0,0.0,0.0,0.0,0.0,0.0,0.0,0.0,0.0,0.0,0.0,0.0,0.0,0.0,0.0,0.0,0.0,0.0,0.0,0.0,0.0,0.0,0.0,0.0,0.0,0.0,0.0,0.0,0.0,0.0,0.0,0.0,0.0,0.0,0.0,0.0,0.0,0.0,0.0,0.0,0.0,0.0,0.0,0.0,0.0,0.0,0.0,0.0,0.0,0.0,0.0,0.0,0.0,0.0,0.0,0.0,0.0,0.0,0.0,0.0,0.0,0.0,0.0,0.0,0.0,0.0,0.0,0.0,0.0,0.0,0.0,0.0,0.0,0.0,0.0,0.0,0.0,0.0,0.0,0.0,0.0,0.0,0.0,0.0,0.0,0.0,0.0,0.0,0.0,0.0,0.0,0.0,0.0,0.0,0.0,0.0,0.0,0.0,0.0,0.0,0.0,0.0,0.0,0.0,0.0,0.0,0.0,0.0,0.0,0.0,0.0,0.0,0.0,0.0,0.0,0.0,0.0,0.0,0.0,0.0,0.0,0.0,0.0,0.0,0.0,0.0,0.0,0.0,0.0,0.0,0.0,0.0,0.0,0.0,0.0,0.0,0.0,0.0,0.0,0.0,0.0,0.0,0.0,0.0,0.0,0.0,0.0,0.0,0.0,0.0,0.0,0.0,0.0,0.0,0.0,0.0,0.0,0.0,0.0,0.0,0.0,0.0,0.0,0.0,0.0,0.0,0.0,0.0,0.0,0.0,0.0,0.0,0.0,0.0,0.0,0.0,0.0,0.0,0.0,0.0,0.0,0.0,0.0,0.0,0.0,0.0,0.0,0.0,0.0,0.0,0.0,0.0,0.0,0.0,0.0,0.0,0.0,0.0,0.0,0.0,0.0,0.0,0.0,0.0,0.0,0.0,0.0,0.0,0.0,0.0,0.0,0.0,0.0,0.0,0.0,0.0,0.0,0.0,0.0,0.0,0.0,0.0,0.0,0.0,0.0,0.0,0.0,0.0,0.0,0.0,0.0,0.0,0.0
0.00011655747328857188,0.0001126061267330987,0.00010801474091324811,0.00010292740077974671,9.733550536426411e-05,9.21685770814862e-05,8.789640270810586e-05,8.486348991381509e-05,8.321248068994114e-05,8.249653319651391e-05,8.285590027217668e-05,8.385555159140454e-05,8.500335091589213e-05,8.589573057017806e-05,8.62045569937958e-05,8.623761269842878e-05,8.629913041654006e-05,8.687895543396726e-05,8.857898045041498e-05,9.207825364534298e-05,9.781778000577595e-05,0.00010581955661303976,0.00011569530695045484,0.00012669323502432708,0.0001378155146314579,0.0001480625982893093,0.00015641815935112972,0.00016212143007291743,0.0001648074895982392,0.00016447127525737556,0.00016174425626664683,0.00015741101501697674,0.00015234829829918414,0.00014733841719798753,0.000142756298559269,0.00013899291910281388,0.0001359134911868187,0.00013308042585769423,0.00012986934479773584,0.0001253935270140899,0.0001193687610242453,0.00011154407550863313,0.00010199587615554333,9.115996672955318e-05,7.955331016624242e-05,6.853754039887772e-05,5.9445158408672285e-05,5.3661890873886156e-05,5.245058866137052e-05,5.646443958151135e-05,6.650229075889005e-05,8.250484521627275e-05,0.00010367051669744856,0.0001283833912022923,0.00015390511169710816,0.00017752271597765132,0.000195926735787487,0.00020581443318318026,0.00020431619374321406,0.00018909821389634878,0.00015987105565288428,0.0,0.0,0.0,0.0,0.0,0.0,0.0,0.0,0.0,0.0,0.0,0.0,0.0,0.0,0.0,0.0,0.0,0.0,0.0,0.0,0.0,0.0,0.0,0.0,0.0,0.0,0.0,0.0,0.0,0.0,0.0,0.0,0.0,0.0,0.0,0.0,0.0,0.0,0.0,0.0,0.0,0.0,0.0,0.0,0.0,0.0,0.0,0.0,0.0,0.0,0.0,0.0,0.0,0.0,0.0,0.0,0.0,0.0,0.0,0.0,0.0,0.0,0.0,0.0,0.0,0.0,0.0,0.0,0.0,0.0,0.0,0.0,0.0,0.0,0.0,0.0,0.0,0.0,0.0,0.0,0.0,0.0,0.0,0.0,0.0,0.0,0.0,0.0,0.0,0.0,0.0,0.0,0.0,0.0,0.0,0.0,0.0,0.0,0.0,0.0,0.0,0.0,0.0,0.0,0.0,0.0,0.0,0.0,0.0,0.0,0.0,0.0,0.0,0.0,0.0,0.0,0.0,0.0,0.0,0.0,0.0,0.0,0.0,0.0,0.0,0.0,0.0,0.0,0.0,0.0,0.0,0.0,0.0,0.0,0.0,0.0,0.0,0.0,0.0,0.0,0.0,0.0,0.0,0.0,0.0,0.0,0.0,0.0,0.0,0.0,0.0,0.0,0.0,0.0,0.0,0.0,0.0,0.0,0.0,0.0,0.0,0.0,0.0,0.0,0.0,0.0,0.0,0.0,0.0,0.0,0.0,0.0,0.0,0.0,0.0,0.0,0.0,0.0,0.0,0.0,0.0,0.0,0.0,0.0,0.0,0.0,0.0,0.0,0.0,0.0,0.0,0.0,0.0,0.0,0.0,0.0,0.0,0.0,0.0,0.0,0.0,0.0,0.0,0.0,0.0,0.0,0.0,0.0,0.0,0.0,0.0,0.0,0.0,0.0,0.0,0.0,0.0,0.0,0.0,0.0,0.0,0.0,0.0,0.0,0.0,0.0,0.0,0.0,0.0,0.0,0.0,0.0,0.0,0.0,0.0,0.0,0.0,0.0,0.0
8.250484521627275e-05,0.00010367051669744856,0.0001283833912022923,0.00015390511169710816,0.00017752271597765132,0.000195926735787487,0.00020581443318318026,0.00020431619374321406,0.00018909821389634878,0.00015987105565288428,0.0001177632829414131,6.562325078005528e-05,7.780936493859936e-06,-5.086346545198888e-05,-0.00010433775112157932,-0.00014743730538944436,-0.00017624636705244648,-0.0001887543207554942,-0.0001855845538117419,-0.00016852146013543486,-0.00014114437991208907,-0.00010780545842248902,-7.284427923085028e-05,-4.0287847060990444e-05,-1.213738039398671e-05,1.073014548174462e-05,2.8710676187415357e-05,4.3065762293793615e-05,5.504636986166229e-05,6.651448875956837e-05,7.856195613258292e-05,9.164830366296438e-05,0.00010563013728158202,0.00011966933146143524,0.00013335558360601764,0.00014613682745617603,0.00015773382076368894,0.00016819451226937043,0.0001776447836085261,0.00018676570278366777,0.00019601523221930307,0.0002056747664892593,0.00021577558208181775,0.00022597558851586276,0.0002360882117508024,0.00024578608860434197,0.0002548701311040576,0.0002633566518942651,0.0002714006108380156,0.00027947160900284793,0.0002879521324182219,0.00029705907265374214,0.0003067376491081899,0.0003165420160200382,0.0003261288861460107,0.0003350184608608054,0.0003429635368647104,0.00035011864632211476,0.0003569296464212384,0.00036450821589557744,0.0003737347634149658,0.0,0.0,0.0,0.0,0.0,0.0,0.0,0.0,0.0,0.0,0.0,0.0,0.0,0.0,0.0,0.0,0.0,0.0,0.0,0.0,0.0,0.0,0.0,0.0,0.0,0.0,0.0,0.0,0.0,0.0,0.0,0.0,0.0,0.0,0.0,0.0,0.0,0.0,0.0,0.0,0.0,0.0,0.0,0.0,0.0,0.0,0.0,0.0,0.0,0.0,0.0,0.0,0.0,0.0,0.0,0.0,0.0,0.0,0.0,0.0,0.0,0.0,0.0,0.0,0.0,0.0,0.0,0.0,0.0,0.0,0.0,0.0,0.0,0.0,0.0,0.0,0.0,0.0,0.0,0.0,0.0,0.0,0.0,0.0,0.0,0.0,0.0,0.0,0.0,0.0,0.0,0.0,0.0,0.0,0.0,0.0,0.0,0.0,0.0,0.0,0.0,0.0,0.0,0.0,0.0,0.0,0.0,0.0,0.0,0.0,0.0,0.0,0.0,0.0,0.0,0.0,0.0,0.0,0.0,0.0,0.0,0.0,0.0,0.0,0.0,0.0,0.0,0.0,0.0,0.0,0.0,0.0,0.0,0.0,0.0,0.0,0.0,0.0,0.0,0.0,0.0,0.0,0.0,0.0,0.0,0.0,0.0,0.0,0.0,0.0,0.0,0.0,0.0,0.0,0.0,0.0,0.0,0.0,0.0,0.0,0.0,0.0,0.0,0.0,0.0,0.0,0.0,0.0,0.0,0.0,0.0,0.0,0.0,0.0,0.0,0.0,0.0,0.0,0.0,0.0,0.0,0.0,0.0,0.0,0.0,0.0,0.0,0.0,0.0,0.0,0.0,0.0,0.0,0.0,0.0,0.0,0.0,0.0,0.0,0.0,0.0,0.0,0.0,0.0,0.0,0.0,0.0,0.0,0.0,0.0,0.0,0.0,0.0,0.0,0.0,0.0,0.0,0.0,0.0,0.0,0.0,0.0,0.0,0.0,0.0,0.0,0.0,0.0,0.0,0.0,0.0,0.0,0.0,0.0,0.0,0.0,0.0,0.0,0.0
0.00029705907265374214,0.0003067376491081899,0.0003165420160200382,0.0003261288861460107,0.0003350184608608054,0.0003429635368647104,0.00035011864632211476,0.0003569296464212384,0.00036450821589557744,0.0003737347634149658,0.00038513136411654115,0.0003985778519427926,0.0004131221345635883,0.0004272003794195203,0.00043879756963597315,0.00044591396574464526,0.00044703705756347033,0.00044156437830657864,0.0004297679060927523,0.0004130733959007729,0.0003935639616541521,0.00037346262898739865,0.0003545896182420412,0.0003379954774241306,0.00032386378860102674,0.0003115554573851055,0.000299888200411327,0.00028745123214277374,0.0002732574986061529,0.0002567985068026653,0.00023823980685805499,0.0002183555172884988,0.00019819982677511246,0.00017916766437917116,0.00016229663838186195,0.00014817022177488612,0.00013682283416567063,0.0001276482064617476,0.0001200388807549882,0.00011307483682250512,0.00010595962198188216,9.822621286920878e-05,8.96731841904049e-05,8.091802508277325e-05,7.258068324141523e-05,6.531782124188468e-05,5.962959157274692e-05,5.5521664208543424e-05,5.3132658206069515e-05,5.197648409579902e-05,5.137598726725321e-05,5.067983074237726e-05,4.921474688703814e-05,4.725565224379982e-05,4.504336507653135e-05,4.302925668763141e-05,4.1730069912007595e-05,4.126538474200658e-05,4.2248323794801104e-05,4.4562495146744445e-05,4.7799142998512426e-05,0.0,0.0,0.0,0.0,0.0,0.0,0.0,0.0,0.0,0.0,0.0,0.0,0.0,0.0,0.0,0.0,0.0,0.0,0.0,0.0,0.0,0.0,0.0,0.0,0.0,0.0,0.0,0.0,0.0,0.0,0.0,0.0,0.0,0.0,0.0,0.0,0.0,0.0,0.0,0.0,0.0,0.0,0.0,0.0,0.0,0.0,0.0,0.0,0.0,0.0,0.0,0.0,0.0,0.0,0.0,0.0,0.0,0.0,0.0,0.0,0.0,0.0,0.0,0.0,0.0,0.0,0.0,0.0,0.0,0.0,0.0,0.0,0.0,0.0,0.0,0.0,0.0,0.0,0.0,0.0,0.0,0.0,0.0,0.0,0.0,0.0,0.0,0.0,0.0,0.0,0.0,0.0,0.0,0.0,0.0,0.0,0.0,0.0,0.0,0.0,0.0,0.0,0.0,0.0,0.0,0.0,0.0,0.0,0.0,0.0,0.0,0.0,0.0,0.0,0.0,0.0,0.0,0.0,0.0,0.0,0.0,0.0,0.0,0.0,0.0,0.0,0.0,0.0,0.0,0.0,0.0,0.0,0.0,0.0,0.0,0.0,0.0,0.0,0.0,0.0,0.0,0.0,0.0,0.0,0.0,0.0,0.0,0.0,0.0,0.0,0.0,0.0,0.0,0.0,0.0,0.0,0.0,0.0,0.0,0.0,0.0,0.0,0.0,0.0,0.0,0.0,0.0,0.0,0.0,0.0,0.0,0.0,0.0,0.0,0.0,0.0,0.0,0.0,0.0,0.0,0.0,0.0,0.0,0.0,0.0,0.0,0.0,0.0,0.0,0.0,0.0,0.0,0.0,0.0,0.0,0.0,0.0,0.0,0.0,0.0,0.0,0.0,0.0,0.0,0.0,0.0,0.0,0.0,0.0,0.0,0.0,0.0,0.0,0.0,0.0,0.0,0.0,0.0,0.0,0.0,0.0,0.0,0.0,0.0,0.0,0.0,0.0,0.0,0.0,0.0,0.0,0.0,0.0,0.0,0.0,0.0,0.0,0.0,0.0
5.067983074237726e-05,4.921474688703814e-05,4.725565224379982e-05,4.504336507653135e-05,4.302925668763141e-05,4.1730069912007595e-05,4.126538474200658e-05,4.2248323794801104e-05,4.4562495146744445e-05,4.7799142998512426e-05,5.1394258883347434e-05,5.449082053324899e-05,5.7134584125115036e-05,5.910664179667208e-05,6.037139814408002e-05,6.105844785468728e-05,6.109287735827227e-05,6.120458101378768e-05,6.153464693302082e-05,6.208285270326646e-05,6.275920877907245e-05,6.321721824451122e-05,6.373628030087122e-05,6.419665990278156e-05,6.447128971537184e-05,6.445996970345764e-05,6.395714965089192e-05,6.323711565089353e-05,6.228395926835308e-05,6.109089143593924e-05,5.96999114444906e-05,5.7910774797470505e-05,5.629808072650753e-05,5.5142365663893304e-05,5.466401588805794e-05,5.493985318552355e-05,5.537252212641682e-05,5.6166723656436204e-05,5.711713216189309e-05,5.802651039222726e-05,5.8760062076104395e-05,5.895137909887429e-05,5.904238296580677e-05,5.9382616867256936e-05,6.041485104645512e-05,6.258027096668522e-05,6.603113672947912e-05,7.112270698941202e-05,7.785524241104148e-05,8.598713014315792e-05,9.50360065897929e-05,0.0001041557430827021,0.00011269571256790528,0.00011986811937247452,0.00012497166711200302,0.0001274917422129006,0.00012705649344844002,0.0001238981151907004,0.00011850796626460382,0.00011167285775483248,0.00010434044722683058,0.0,0.0,0.0,0.0,0.0,0.0,0.0,0.0,0.0,0.0,0.0,0.0,0.0,0.0,0.0,0.0,0.0,0.0,0.0,0.0,0.0,0.0,0.0,0.0,0.0,0.0,0.0,0.0,0.0,0.0,0.0,0.0,0.0,0.0,0.0,0.0,0.0,0.0,0.0,0.0,0.0,0.0,0.0,0.0,0.0,0.0,0.0,0.0,0.0,0.0,0.0,0.0,0.0,0.0,0.0,0.0,0.0,0.0,0.0,0.0,0.0,0.0,0.0,0.0,0.0,0.0,0.0,0.0,0.0,0.0,0.0,0.0,0.0,0.0,0.0,0.0,0.0,0.0,0.0,0.0,0.0,0.0,0.0,0.0,0.0,0.0,0.0,0.0,0.0,0.0,0.0,0.0,0.0,0.0,0.0,0.0,0.0,0.0,0.0,0.0,0.0,0.0,0.0,0.0,0.0,0.0,0.0,0.0,0.0,0.0,0.0,0.0,0.0,0.0,0.0,0.0,0.0,0.0,0.0,0.0,0.0,0.0,0.0,0.0,0.0,0.0,0.0,0.0,0.0,0.0,0.0,0.0,0.0,0.0,0.0,0.0,0.0,0.0,0.0,0.0,0.0,0.0,0.0,0.0,0.0,0.0,0.0,0.0,0.0,0.0,0.0,0.0,0.0,0.0,0.0,0.0,0.0,0.0,0.0,0.0,0.0,0.0,0.0,0.0,0.0,0.0,0.0,0.0,0.0,0.0,0.0,0.0,0.0,0.0,0.0,0.0,0.0,0.0,0.0,0.0,0.0,0.0,0.0,0.0,0.0,0.0,0.0,0.0,0.0,0.0,0.0,0.0,0.0,0.0,0.0,0.0,0.0,0.0,0.0,0.0,0.0,0.0,0.0,0.0,0.0,0.0,0.0,0.0,0.0,0.0,0.0,0.0,0.0,0.0,0.0,0.0,0.0,0.0,0.0,0.0,0.0,0.0,0.0,0.0,0.0,0.0,0.0,0.0,0.0,0.0,0.0,0.0,0.0,0.0,0.0,0.0,0.0,0.0,0.0
0.0001041557430827021,0.00011269571256790528,0.00011986811937247452,0.00012497166711200302,0.0001274917422129006,0.00012705649344844002,0.0001238981151907004,0.00011850796626460382,0.00011167285775483248,0.00010434044722683058,9.729660453123024e-05,9.138302529105662e-05,8.693629213269238e-05,8.377608279471057e-05,8.118915224076056e-05,7.790332666516467e-05,7.277429897547436e-05,6.471976858739397e-05,5.3200216940268774e-05,3.8531404967536685e-05,2.1894131664754607e-05,5.881477749576354e-06,-6.212430869591122e-06,-1.0702713611817152e-05,-4.12634230568719e-06,1.5874726415984108e-05,5.060640050485382e-05,9.934099242122858e-05,0.00015933888521105143,0.00022604110512835295,0.0002933321513166172,0.0003551179194229763,0.0004055636504759947,0.00044012870103924843,0.0004562085525623931,0.00045315234088705444,0.0004331542624137244,0.0004000778358540359,0.00035895395511716875,0.00031511053320319005,0.0002729835952989481,0.00023647092459677001,0.0002077033227415401,0.00018718774773057335,0.00017401251384398703,0.0001659146555303745,0.00016095117984456258,0.00015712951830149858,0.00015304192646462594,0.00014803355037468465,0.00014181844063307396,0.00013529740805031407,0.00012935984845481433,0.00012480046688884895,0.00012205458690538227,0.00012076685684076762,0.00012077902047158217,0.00012143484708648507,0.00012206109551737913,0.0001221866256609071,0.00012148359148968728,0.0,0.0,0.0,0.0,0.0,0.0,0.0,0.0,0.0,0.0,0.0,0.0,0.0,0.0,0.0,0.0,0.0,0.0,0.0,0.0,0.0,0.0,0.0,0.0,0.0,0.0,0.0,0.0,0.0,0.0,0.0,0.0,0.0,0.0,0.0,0.0,0.0,0.0,0.0,0.0,0.0,0.0,0.0,0.0,0.0,0.0,0.0,0.0,0.0,0.0,0.0,0.0,0.0,0.0,0.0,0.0,0.0,0.0,0.0,0.0,0.0,0.0,0.0,0.0,0.0,0.0,0.0,0.0,0.0,0.0,0.0,0.0,0.0,0.0,0.0,0.0,0.0,0.0,0.0,0.0,0.0,0.0,0.0,0.0,0.0,0.0,0.0,0.0,0.0,0.0,0.0,0.0,0.0,0.0,0.0,0.0,0.0,0.0,0.0,0.0,0.0,0.0,0.0,0.0,0.0,0.0,0.0,0.0,0.0,0.0,0.0,0.0,0.0,0.0,0.0,0.0,0.0,0.0,0.0,0.0,0.0,0.0,0.0,0.0,0.0,0.0,0.0,0.0,0.0,0.0,0.0,0.0,0.0,0.0,0.0,0.0,0.0,0.0,0.0,0.0,0.0,0.0,0.0,0.0,0.0,0.0,0.0,0.0,0.0,0.0,0.0,0.0,0.0,0.0,0.0,0.0,0.0,0.0,0.0,0.0,0.0,0.0,0.0,0.0,0.0,0.0,0.0,0.0,0.0,0.0,0.0,0.0,0.0,0.0,0.0,0.0,0.0,0.0,0.0,0.0,0.0,0.0,0.0,0.0,0.0,0.0,0.0,0.0,0.0,0.0,0.0,0.0,0.0,0.0,0.0,0.0,0.0,0.0,0.0,0.0,0.0,0.0,0.0,0.0,0.0,0.0,0.0,0.0,0.0,0.0,0.0,0.0,0.0,0.0,0.0,0.0,0.0,0.0,0.0,0.0,0.0,0.0,0.0,0.0,0.0,0.0,0.0,0.0,0.0,0.0,0.0,0.0,0.0,0.0,0.0,0.0,0.0,0.0,0.0
0.00013529740805031407,0.00012935984845481433,0.00012480046688884895,0.00012205458690538227,0.00012076685684076762,0.00012077902047158217,0.00012143484708648507,0.00012206109551737913,0.0001221866256609071,0.00012148359148968728,0.00012045386917068857,0.00011973928167462927,0.00012012506337950656,0.0001223186644164319,0.0001266402587552265,0.00013324120005482395,0.00014173151948581738,0.00015138812248900879,0.00016134385176939337,0.0001707709340138945,0.000179237759280555,0.00018668415758823936,0.00019348942358208215,0.00020036903912235484,0.00020818626362877882,0.00021764895430690994,0.0002291167428410098,0.00024244406269814352,0.00025697190357066094,0.00027157015230721784,0.0002852897686893265,0.0002971302770926099,0.0003065347711221666,0.000313574768018967,0.00031873240177134033,0.0003235313265317025,0.00032906264056061597,0.00033605369995266197,0.0003446270860291813,0.0003540570027116908,0.0003634409729297575,0.0003711761757035708,0.0003756500452929424,0.0003756794040393956,0.00037075287389497273,0.0003614841524392266,0.00034904829371038996,0.00033502879668620585,0.00032100351210214155,0.000308065831617799,0.0002968064326142218,0.00028685529459641213,0.00027716119101079035,0.00026632762016488756,0.0002529790693915226,0.00023635873948267647,0.00021628938022183317,0.0001933557356702067,0.00016878899839635654,0.00014415247856254814,0.0001211514220699553,0.0,0.0,0.0,0.0,0.0,0.0,0.0,0.0,0.0,0.0,0.0,0.0,0.0,0.0,0.0,0.0,0.0,0.0,0.0,0.0,0.0,0.0,0.0,0.0,0.0,0.0,0.0,0.0,0.0,0.0,0.0,0.0,0.0,0.0,0.0,0.0,0.0,0.0,0.0,0.0,0.0,0.0,0.0,0.0,0.0,0.0,0.0,0.0,0.0,0.0,0.0,0.0,0.0,0.0,0.0,0.0,0.0,0.0,0.0,0.0,0.0,0.0,0.0,0.0,0.0,0.0,0.0,0.0,0.0,0.0,0.0,0.0,0.0,0.0,0.0,0.0,0.0,0.0,0.0,0.0,0.0,0.0,0.0,0.0,0.0,0.0,0.0,0.0,0.0,0.0,0.0,0.0,0.0,0.0,0.0,0.0,0.0,0.0,0.0,0.0,0.0,0.0,0.0,0.0,0.0,0.0,0.0,0.0,0.0,0.0,0.0,0.0,0.0,0.0,0.0,0.0,0.0,0.0,0.0,0.0,0.0,0.0,0.0,0.0,0.0,0.0,0.0,0.0,0.0,0.0,0.0,0.0,0.0,0.0,0.0,0.0,0.0,0.0,0.0,0.0,0.0,0.0,0.0,0.0,0.0,0.0,0.0,0.0,0.0,0.0,0.0,0.0,0.0,0.0,0.0,0.0,0.0,0.0,0.0,0.0,0.0,0.0,0.0,0.0,0.0,0.0,0.0,0.0,0.0,0.0,0.0,0.0,0.0,0.0,0.0,0.0,0.0,0.0,0.0,0.0,0.0,0.0,0.0,0.0,0.0,0.0,0.0,0.0,0.0,0.0,0.0,0.0,0.0,0.0,0.0,0.0,0.0,0.0,0.0,0.0,0.0,0.0,0.0,0.0,0.0,0.0,0.0,0.0,0.0,0.0,0.0,0.0,0.0,0.0,0.0,0.0,0.0,0.0,0.0,0.0,0.0,0.0,0.0,0.0,0.0,0.0,0.0,0.0,0.0,0.0,0.0,0.0,0.0,0.0,0.0,0.0,0.0,0.0,0.0
0.00028685529459641213,0.00027716119101079035,0.00026632762016488756,0.0002529790693915226,0.00023635873948267647,0.00021628938022183317,0.0001933557356702067,0.00016878899839635654,0.00014415247856254814,0.0001211514220699553,0.00010102404807692542,8.440489216019242e-05,7.125037662782551e-05,6.0900936554723866e-05,5.2423557232115406e-05,4.466961793818227e-05,3.6668410220942415e-05,2.786839380204636e-05,1.8211419233315664e-05,8.287719229738341e-06,-1.1520995172228556e-06,-9.29952305704828e-06,-1.5513589023732796e-05,-1.955033085881609e-05,-2.1383541786881707e-05,-2.157329320269244e-05,-2.0934678190000665e-05,-2.029101522220351e-05,-2.0327988857931222e-05,-2.1067086437375527e-05,-2.2396251426332472e-05,-2.3915907604596056e-05,-2.506844142067422e-05,-2.543189654576229e-05,-2.439173993171144e-05,-2.19612854412839e-05,-1.8495740788379706e-05,-1.4564837841354597e-05,-1.0957324047063937e-05,-7.853631737351127e-06,-5.607076543523692e-06,-4.365638099949924e-06,-4.061234262034963e-06,-4.689568887001893e-06,-5.550954656292114e-06,-6.394644861980041e-06,-7.0905728895295605e-06,-7.616109723129809e-06,-8.219247063315666e-06,-8.677518382208993e-06,-9.170135854788624e-06,-9.926577449035238e-06,-1.1170985184224654e-05,-1.3229277608710538e-05,-1.5912869486643982e-05,-1.9226495935603248e-05,-2.308347252655752e-05,-2.7285645407083565e-05,-3.160519041692183e-05,-3.556775612020677e-05,-3.8916685559337744e-05,0.0,0.0,0.0,0.0,0.0,0.0,0.0,0.0,0.0,0.0,0.0,0.0,0.0,0.0,0.0,0.0,0.0,0.0,0.0,0.0,0.0,0.0,0.0,0.0,0.0,0.0,0.0,0.0,0.0,0.0,0.0,0.0,0.0,0.0,0.0,0.0,0.0,0.0,0.0,0.0,0.0,0.0,0.0,0.0,0.0,0.0,0.0,0.0,0.0,0.0,0.0,0.0,0.0,0.0,0.0,0.0,0.0,0.0,0.0,0.0,0.0,0.0,0.0,0.0,0.0,0.0,0.0,0.0,0.0,0.0,0.0,0.0,0.0,0.0,0.0,0.0,0.0,0.0,0.0,0.0,0.0,0.0,0.0,0.0,0.0,0.0,0.0,0.0,0.0,0.0,0.0,0.0,0.0,0.0,0.0,0.0,0.0,0.0,0.0,0.0,0.0,0.0,0.0,0.0,0.0,0.0,0.0,0.0,0.0,0.0,0.0,0.0,0.0,0.0,0.0,0.0,0.0,0.0,0.0,0.0,0.0,0.0,0.0,0.0,0.0,0.0,0.0,0.0,0.0,0.0,0.0,0.0,0.0,0.0,0.0,0.0,0.0,0.0,0.0,0.0,0.0,0.0,0.0,0.0,0.0,0.0,0.0,0.0,0.0,0.0,0.0,0.0,0.0,0.0,0.0,0.0,0.0,0.0,0.0,0.0,0.0,0.0,0.0,0.0,0.0,0.0,0.0,0.0,0.0,0.0,0.0,0.0,0.0,0.0,0.0,0.0,0.0,0.0,0.0,0.0,0.0,0.0,0.0,0.0,0.0,0.0,0.0,0.0,0.0,0.0,0.0,0.0,0.0,0.0,0.0,0.0,0.0,0.0,0.0,0.0,0.0,0.0,0.0,0.0,0.0,0.0,0.0,0.0,0.0,0.0,0.0,0.0,0.0,0.0,0.0,0.0,0.0,0.0,0.0,0.0,0.0,0.0,0.0,0.0,0.0,0.0,0.0,0.0,0.0,0.0,0.0,0.0,0.0,0.0,0.0,0.0,0.0,0.0,0.0
-9.926577449035238e-06,-1.1170985184224654e-05,-1.3229277608710538e-05,-1.5912869486643982e-05,-1.9226495935603248e-05,-2.308347252655752e-05,-2.7285645407083565e-05,-3.160519041692183e-05,-3.556775612020677e-05,-3.8916685559337744e-05,-4.152279529210448e-05,-4.340030562994249e-05,-4.466528324296854e-05,-4.552758158454954e-05,-4.6271558395925735e-05,-4.714064561919337e-05,-4.8261843545401144e-05,-4.969669730337177e-05,-5.117459900000245e-05,-5.240196572888094e-05,-5.3101230227722193e-05,-5.31233814608598e-05,-5.2726601906160875e-05,-5.198500461656708e-05,-5.116415387339918e-05,-5.0527448539625675e-05,-5.024482125366594e-05,-5.0420329091190654e-05,-5.0758954865762466e-05,-5.078239871865267e-05,-4.9865334441444276e-05,-4.736626104647208e-05,-4.277587243707788e-05,-3.5854974052886986e-05,-2.6683949382895783e-05,-1.5700182747202254e-05,-3.6536361628576443e-06,8.486658518205546e-06,1.970502059067474e-05,2.909305741121027e-05,3.59860130314083e-05,4.005898872075678e-05,4.134435061218138e-05,4.026918675533427e-05,3.7526789228851556e-05,3.3948790925033686e-05,3.033840549927902e-05,2.7275077410180702e-05,2.5063412611281314e-05,2.3601978493013886e-05,2.2392130338693416e-05,2.061782227780126e-05,1.7267920353867752e-05,1.1459228232712863e-05,2.6106124536830383e-06,-9.328211510593771e-06,-2.3730637954251466e-05,-3.932259870079207e-05,-5.40562091899225e-05,-6.544818198344043e-05,-7.089294728677964e-05,0.0,0.0,0.0,0.0,0.0,0.0,0.0,0.0,0.0,0.0,0.0,0.0,0.0,0.0,0.0,0.0,0.0,0.0,0.0,0.0,0.0,0.0,0.0,0.0,0.0,0.0,0.0,0.0,0.0,0.0,0.0,0.0,0.0,0.0,0.0,0.0,0.0,0.0,0.0,0.0,0.0,0.0,0.0,0.0,0.0,0.0,0.0,0.0,0.0,0.0,0.0,0.0,0.0,0.0,0.0,0.0,0.0,0.0,0.0,0.0,0.0,0.0,0.0,0.0,0.0,0.0,0.0,0.0,0.0,0.0,0.0,0.0,0.0,0.0,0.0,0.0,0.0,0.0,0.0,0.0,0.0,0.0,0.0,0.0,0.0,0.0,0.0,0.0,0.0,0.0,0.0,0.0,0.0,0.0,0.0,0.0,0.0,0.0,0.0,0.0,0.0,0.0,0.0,0.0,0.0,0.0,0.0,0.0,0.0,0.0,0.0,0.0,0.0,0.0,0.0,0.0,0.0,0.0,0.0,0.0,0.0,0.0,0.0,0.0,0.0,0.0,0.0,0.0,0.0,0.0,0.0,0.0,0.0,0.0,0.0,0.0,0.0,0.0,0.0,0.0,0.0,0.0,0.0,0.0,0.0,0.0,0.0,0.0,0.0,0.0,0.0,0.0,0.0,0.0,0.0,0.0,0.0,0.0,0.0,0.0,0.0,0.0,0.0,0.0,0.0,0.0,0.0,0.0,0.0,0.0,0.0,0.0,0.0,0.0,0.0,0.0,0.0,0.0,0.0,0.0,0.0,0.0,0.0,0.0,0.0,0.0,0.0,0.0,0.0,0.0,0.0,0.0,0.0,0.0,0.0,0.0,0.0,0.0,0.0,0.0,0.0,0.0,0.0,0.0,0.0,0.0,0.0,0.0,0.0,0.0,0.0,0.0,0.0,0.0,0.0,0.0,0.0,0.0,0.0,0.0,0.0,0.0,0.0,0.0,0.0,0.0,0.0,0.0,0.0,0.0,0.0,0.0,0.0,0.0,0.0,0.0,0.0,0.0,0.0
2.061782227780126e-05,1.7267920353867752e-05,1.1459228232712863e-05,2.6106124536830383e-06,-9.328211510593771e-06,-2.3730637954251466e-05,-3.932259870079207e-05,-5.40562091899225e-05,-6.544818198344043e-05,-7.089294728677964e-05,-6.80790981863042e-05,-5.5522896228850155e-05,-3.261461118582731e-05,-2.6495423529450595e-08,4.026394654815773e-05,8.510876013876812e-05,0.00013034976044997223,0.0001718011954279138,0.00020550062088308877,0.00022830510609813962,0.00023829661846384043,0.0002347775626702847,0.0002189682910824273,0.00019336117366341622,0.00016140680387277754,0.00012695692214079846,9.340270702252174e-05,6.395332912736083e-05,4.072913357818828e-05,2.4687279547861983e-05,1.5617225817756495e-05,1.2023051546947856e-05,1.2384210029572844e-05,1.493889626246422e-05,1.818389026130291e-05,2.1092548771344953e-05,2.2941163685934564e-05,2.3943164441323915e-05,2.4537254604398585e-05,2.527251049463863e-05,2.6567871724933413e-05,2.838816184272211e-05,3.071776081855971e-05,3.321671806975017e-05,3.5496761538682836e-05,3.7294016885159374e-05,3.849173958772895e-05,3.9507576412689856e-05,4.0952775824027977e-05,4.356707795995395e-05,4.8020162045385334e-05,5.4665501708736926e-05,6.357698718449408e-05,7.437145999069793e-05,8.633499661752672e-05,9.860001990417648e-05,0.00011036594958438749,0.00012112538818816041,0.00013083155504649735,0.00013991552642879433,0.00014917987776296763,0.0,0.0,0.0,0.0,0.0,0.0,0.0,0.0,0.0,0.0,0.0,0.0,0.0,0.0,0.0,0.0,0.0,0.0,0.0,0.0,0.0,0.0,0.0,0.0,0.0,0.0,0.0,0.0,0.0,0.0,0.0,0.0,0.0,0.0,0.0,0.0,0.0,0.0,0.0,0.0,0.0,0.0,0.0,0.0,0.0,0.0,0.0,0.0,0.0,0.0,0.0,0.0,0.0,0.0,0.0,0.0,0.0,0.0,0.0,0.0,0.0,0.0,0.0,0.0,0.0,0.0,0.0,0.0,0.0,0.0,0.0,0.0,0.0,0.0,0.0,0.0,0.0,0.0,0.0,0.0,0.0,0.0,0.0,0.0,0.0,0.0,0.0,0.0,0.0,0.0,0.0,0.0,0.0,0.0,0.0,0.0,0.0,0.0,0.0,0.0,0.0,0.0,0.0,0.0,0.0,0.0,0.0,0.0,0.0,0.0,0.0,0.0,0.0,0.0,0.0,0.0,0.0,0.0,0.0,0.0,0.0,0.0,0.0,0.0,0.0,0.0,0.0,0.0,0.0,0.0,0.0,0.0,0.0,0.0,0.0,0.0,0.0,0.0,0.0,0.0,0.0,0.0,0.0,0.0,0.0,0.0,0.0,0.0,0.0,0.0,0.0,0.0,0.0,0.0,0.0,0.0,0.0,0.0,0.0,0.0,0.0,0.0,0.0,0.0,0.0,0.0,0.0,0.0,0.0,0.0,0.0,0.0,0.0,0.0,0.0,0.0,0.0,0.0,0.0,0.0,0.0,0.0,0.0,0.0,0.0,0.0,0.0,0.0,0.0,0.0,0.0,0.0,0.0,0.0,0.0,0.0,0.0,0.0,0.0,0.0,0.0,0.0,0.0,0.0,0.0,0.0,0.0,0.0,0.0,0.0,0.0,0.0,0.0,0.0,0.0,0.0,0.0,0.0,0.0,0.0,0.0,0.0,0.0,0.0,0.0,0.0,0.0,0.0,0.0,0.0,0.0,0.0,0.0,0.0,0.0,0.0,0.0,0.0,0.0
5.4665501708736926e-05,6.357698718449408e-05,7.437145999069793e-05,8.633499661752672e-05,9.860001990417648e-05,0.00011036594958438749,0.00012112538818816041,0.00013083155504649735,0.00013991552642879433,0.00014917987776296763,0.00015961868087237862,0.00017198534689592015,0.00018671117123342956,0.00020365507625726639,0.0002220673885248434,0.00024069003524245362,0.0002582097751385966,0.0002734173509827108,0.0002856381252427229,0.0002949548992867192,0.0003020928578726167,0.0003086602764298151,0.00031612160476197795,0.00032555304908825605,0.0003372527404785363,0.0003504589385336365,0.00036364770100311947,0.00037449307971075324,0.0003804915487563526,0.0003795505816703534,0.00037048615066936344,0.0003533782391607222,0.00032952851916640913,0.0003012069973991439,0.0002711689313955817,0.00024207499227015162,0.00021602840994066407,0.00019418427279718192,0.00017668027475130745,0.00016278728112081,0.00015122701844604334,0.00014061599829767662,0.00012978062450108577,0.00011803989085817661,0.00010530339357797913,9.198592857205076e-05,7.887588318460685e-05,6.678579927796984e-05,5.634212206580375e-05,4.781950603514829e-05,4.1063295963736866e-05,3.564370395558609e-05,3.088961084228425e-05,2.6137435720287908e-05,2.0926984417336665e-05,1.5088329365614545e-05,8.941398974942635e-06,2.9833572946296047e-06,-2.1712577950950563e-06,-5.96553720047496e-06,-8.121107191876237e-06,0.0,0.0,0.0,0.0,0.0,0.0,0.0,0.0,0.0,0.0,0.0,0.0,0.0,0.0,0.0,0.0,0.0,0.0,0.0,0.0,0.0,0.0,0.0,0.0,0.0,0.0,0.0,0.0,0.0,0.0,0.0,0.0,0.0,0.0,0.0,0.0,0.0,0.0,0.0,0.0,0.0,0.0,0.0,0.0,0.0,0.0,0.0,0.0,0.0,0.0,0.0,0.0,0.0,0.0,0.0,0.0,0.0,0.0,0.0,0.0,0.0,0.0,0.0,0.0,0.0,0.0,0.0,0.0,0.0,0.0,0.0,0.0,0.0,0.0,0.0,0.0,0.0,0.0,0.0,0.0,0.0,0.0,0.0,0.0,0.0,0.0,0.0,0.0,0.0,0.0,0.0,0.0,0.0,0.0,0.0,0.0,0.0,0.0,0.0,0.0,0.0,0.0,0.0,0.0,0.0,0.0,0.0,0.0,0.0,0.0,0.0,0.0,0.0,0.0,0.0,0.0,0.0,0.0,0.0,0.0,0.0,0.0,0.0,0.0,0.0,0.0,0.0,0.0,0.0,0.0,0.0,0.0,0.0,0.0,0.0,0.0,0.0,0.0,0.0,0.0,0.0,0.0,0.0,0.0,0.0,0.0,0.0,0.0,0.0,0.0,0.0,0.0,0.0,0.0,0.0,0.0,0.0,0.0,0.0,0.0,0.0,0.0,0.0,0.0,0.0,0.0,0.0,0.0,0.0,0.0,0.0,0.0,0.0,0.0,0.0,0.0,0.0,0.0,0.0,0.0,0.0,0.0,0.0,0.0,0.0,0.0,0.0,0.0,0.0,0.0,0.0,0.0,0.0,0.0,0.0,0.0,0.0,0.0,0.0,0.0,0.0,0.0,0.0,0.0,0.0,0.0,0.0,0.0,0.0,0.0,0.0,0.0,0.0,0.0,0.0,0.0,0.0,0.0,0.0,0.0,0.0,0.0,0.0,0.0,0.0,0.0,0.0,0.0,0.0,0.0,0.0,0.0,0.0,0.0,0.0,0.0,0.0,0.0,0.0
3.564370395558609e-05,3.088961084228425e-05,2.6137435720287908e-05,2.0926984417336665e-05,1.5088329365614545e-05,8.941398974942635e-06,2.9833572946296047e-06,-2.1712577950950563e-06,-5.96553720047496e-06,-8.121107191876237e-06,-8.485874983352665e-06,-7.392756841072539e-06,-5.430007744593695e-06,-3.268113440063562e-06,-1.5745662761935714e-06,-4.863644243536431e-07,-8.817995353061441e-08,-2.24997499482969e-07,-5.706896796521632e-07,-8.770834445495067e-07,-5.691143485155616e-07,4.430669642282981e-07,2.02413669338101e-06,3.8889805667447744e-06,5.506249268655064e-06,6.937311574550292e-06,7.96176431453481e-06,8.443827111312209e-06,8.348650813141714e-06,7.456942089927722e-06,6.289257753161975e-06,4.9276300066100076e-06,3.4133352139661687e-06,1.7858275601820142e-06,-9.453580968093488e-08,-1.7968093824310212e-06,-3.196357641742941e-06,-4.204060613004015e-06,-4.776995692777685e-06,-5.077623818408319e-06,-4.951574896854384e-06,-4.490303301151443e-06,-3.816895616471523e-06,-3.0554854639075307e-06,-2.4060072506469707e-06,-1.8227259652198042e-06,-1.384919181417977e-06,-1.1868406329160424e-06,-1.3339752350373771e-06,-1.960700398954612e-06,-3.083522457655073e-06,-4.714059857328297e-06,-6.782619917279851e-06,-9.126976073722998e-06,-1.1645078386931846e-05,-1.3926872749000065e-05,-1.566614582675209e-05,-1.666540604607531e-05,-1.691997691240863e-05,-1.6892662094545358e-05,-1.676788582101033e-05,0.0,0.0,0.0,0.0,0.0,0.0,0.0,0.0,0.0,0.0,0.0,0.0,0.0,0.0,0.0,0.0,0.0,0.0,0.0,0.0,0.0,0.0,0.0,0.0,0.0,0.0,0.0,0.0,0.0,0.0,0.0,0.0,0.0,0.0,0.0,0.0,0.0,0.0,0.0,0.0,0.0,0.0,0.0,0.0,0.0,0.0,0.0,0.0,0.0,0.0,0.0,0.0,0.0,0.0,0.0,0.0,0.0,0.0,0.0,0.0,0.0,0.0,0.0,0.0,0.0,0.0,0.0,0.0,0.0,0.0,0.0,0.0,0.0,0.0,0.0,0.0,0.0,0.0,0.0,0.0,0.0,0.0,0.0,0.0,0.0,0.0,0.0,0.0,0.0,0.0,0.0,0.0,0.0,0.0,0.0,0.0,0.0,0.0,0.0,0.0,0.0,0.0,0.0,0.0,0.0,0.0,0.0,0.0,0.0,0.0,0.0,0.0,0.0,0.0,0.0,0.0,0.0,0.0,0.0,0.0,0.0,0.0,0.0,0.0,0.0,0.0,0.0,0.0,0.0,0.0,0.0,0.0,0.0,0.0,0.0,0.0,0.0,0.0,0.0,0.0,0.0,0.0,0.0,0.0,0.0,0.0,0.0,0.0,0.0,0.0,0.0,0.0,0.0,0.0,0.0,0.0,0.0,0.0,0.0,0.0,0.0,0.0,0.0,0.0,0.0,0.0,0.0,0.0,0.0,0.0,0.0,0.0,0.0,0.0,0.0,0.0,0.0,0.0,0.0,0.0,0.0,0.0,0.0,0.0,0.0,0.0,0.0,0.0,0.0,0.0,0.0,0.0,0.0,0.0,0.0,0.0,0.0,0.0,0.0,0.0,0.0,0.0,0.0,0.0,0.0,0.0,0.0,0.0,0.0,0.0,0.0,0.0,0.0,0.0,0.0,0.0,0.0,0.0,0.0,0.0,0.0,0.0,0.0,0.0,0.0,0.0,0.0,0.0,0.0,0.0,0.0,0.0,0.0,0.0,0.0,0.0,0.0,0.0,0.0
-4.714059857328297e-06,-6.782619917279851e-06,-9.126976073722998e-06,-1.1645078386931846e-05,-1.3926872749000065e-05,-1.566614582675209e-05,-1.666540604607531e-05,-1.691997691240863e-05,-1.6892662094545358e-05,-1.676788582101033e-05,-1.6884848705413696e-05,-1.7497101882969362e-05,-1.8681104516128326e-05,-2.0400687063562373e-05,-2.2144293521581345e-05,-2.3242995541068767e-05,-2.2919318984395032e-05,-2.044223211984803e-05,-1.528804041277813e-05,-7.26586430891672e-06,3.4108835240405947e-06,1.6130380126804067e-05,2.996299617106544e-05,4.3783529749585674e-05,5.6501090872740844e-05,6.718507463901922e-05,7.521659490466003e-05,8.03682244619789e-05,8.277711809709094e-05,8.299247097832963e-05,8.176366617839702e-05,7.990787953979755e-05,7.814451326189233e-05,7.689316831081564e-05,7.636183622844681e-05,7.637997313364479e-05,7.646665283277136e-05,7.592080206180573e-05,7.38739265849398e-05,6.97087224383975e-05,6.304466672542507e-05,5.39213665802705e-05,4.2883997707248526e-05,3.086336954284981e-05,1.95389017594518e-05,1.0885392457282967e-05,7.011686948409373e-06,9.84719335269132e-06,2.060570357490913e-05,4.0058650300728816e-05,6.786397855695218e-05,0.00010255331926833274,0.00014155881465820267,0.00018117010462081052,0.0002176465822146771,0.00024716396667443863,0.00026645784450318554,0.000273270435963714,0.0002663743590199043,0.00024661137093330907,0.0002161738132658023,0.0,0.0,0.0,0.0,0.0,0.0,0.0,0.0,0.0,0.0,0.0,0.0,0.0,0.0,0.0,0.0,0.0,0.0,0.0,0.0,0.0,0.0,0.0,0.0,0.0,0.0,0.0,0.0,0.0,0.0,0.0,0.0,0.0,0.0,0.0,0.0,0.0,0.0,0.0,0.0,0.0,0.0,0.0,0.0,0.0,0.0,0.0,0.0,0.0,0.0,0.0,0.0,0.0,0.0,0.0,0.0,0.0,0.0,0.0,0.0,0.0,0.0,0.0,0.0,0.0,0.0,0.0,0.0,0.0,0.0,0.0,0.0,0.0,0.0,0.0,0.0,0.0,0.0,0.0,0.0,0.0,0.0,0.0,0.0,0.0,0.0,0.0,0.0,0.0,0.0,0.0,0.0,0.0,0.0,0.0,0.0,0.0,0.0,0.0,0.0,0.0,0.0,0.0,0.0,0.0,0.0,0.0,0.0,0.0,0.0,0.0,0.0,0.0,0.0,0.0,0.0,0.0,0.0,0.0,0.0,0.0,0.0,0.0,0.0,0.0,0.0,0.0,0.0,0.0,0.0,0.0,0.0,0.0,0.0,0.0,0.0,0.0,0.0,0.0,0.0,0.0,0.0,0.0,0.0,0.0,0.0,0.0,0.0,0.0,0.0,0.0,0.0,0.0,0.0,0.0,0.0,0.0,0.0,0.0,0.0,0.0,0.0,0.0,0.0,0.0,0.0,0.0,0.0,0.0,0.0,0.0,0.0,0.0,0.0,0.0,0.0,0.0,0.0,0.0,0.0,0.0,0.0,0.0,0.0,0.0,0.0,0.0,0.0,0.0,0.0,0.0,0.0,0.0,0.0,0.0,0.0,0.0,0.0,0.0,0.0,0.0,0.0,0.0,0.0,0.0,0.0,0.0,0.0,0.0,0.0,0.0,0.0,0.0,0.0,0.0,0.0,0.0,0.0,0.0,0.0,0.0,0.0,0.0,0.0,0.0,0.0,0.0,0.0,0.0,0.0,0.0,0.0,0.0,0.0,0.0,0.0,0.0,0.0,0.0
0.00010255331926833274,0.00014155881465820267,0.00018117010462081052,0.0002176465822146771,0.00024716396667443863,0.00026645784450318554,0.000273270435963714,0.0002663743590199043,0.00024661137093330907,0.0002161738132658023,0.0001784485201278319,0.00013750029004192844,9.712220828687539e-05,6.12162120390343e-05,3.257312364728211e-05,1.2707234927044817e-05,1.7301441201428575e-06,-1.8889660994806598e-06,1.107069165555985e-07,5.477073873879817e-06,1.2112358043186987e-05,1.8429441328630683e-05,2.319908166652082e-05,2.6575967008857224e-05,2.912037554645819e-05,3.169885131560239e-05,3.512873853711851e-05,3.957414673912595e-05,4.537116804025927e-05,5.222901621899484e-05,5.960371303788642e-05,6.690806175011974e-05,7.34819572019647e-05,7.947470794971776e-05,8.523411573667151e-05,9.139506256904767e-05,9.868738496312092e-05,0.00010754732987447476,0.00011843146000357346,0.00013124249962855828,0.00014547604468994222,0.00016034155593428324,0.0001748609503590007,0.0001884193583482527,0.00020066477454336058,0.00021168866168365562,0.00022199572690544556,0.00023230595934591155,0.00024345402957120978,0.0002560167832992395,0.00027013913021441404,0.0002854469650424181,0.0003010074293931178,0.00031592574347799916,0.0003292054665177981,0.0003402129302776447,0.0003488982031793907,0.00035566683371513326,0.0003618456855248633,0.0003685820390560785,0.00037673672971673004,0.0,0.0,0.0,0.0,0.0,0.0,0.0,0.0,0.0,0.0,0.0,0.0,0.0,0.0,0.0,0.0,0.0,0.0,0.0,0.0,0.0,0.0,0.0,0.0,0.0,0.0,0.0,0.0,0.0,0.0,0.0,0.0,0.0,0.0,0.0,0.0,0.0,0.0,0.0,0.0,0.0,0.0,0.0,0.0,0.0,0.0,0.0,0.0,0.0,0.0,0.0,0.0,0.0,0.0,0.0,0.0,0.0,0.0,0.0,0.0,0.0,0.0,0.0,0.0,0.0,0.0,0.0,0.0,0.0,0.0,0.0,0.0,0.0,0.0,0.0,0.0,0.0,0.0,0.0,0.0,0.0,0.0,0.0,0.0,0.0,0.0,0.0,0.0,0.0,0.0,0.0,0.0,0.0,0.0,0.0,0.0,0.0,0.0,0.0,0.0,0.0,0.0,0.0,0.0,0.0,0.0,0.0,0.0,0.0,0.0,0.0,0.0,0.0,0.0,0.0,0.0,0.0,0.0,0.0,0.0,0.0,0.0,0.0,0.0,0.0,0.0,0.0,0.0,0.0,0.0,0.0,0.0,0.0,0.0,0.0,0.0,0.0,0.0,0.0,0.0,0.0,0.0,0.0,0.0,0.0,0.0,0.0,0.0,0.0,0.0,0.0,0.0,0.0,0.0,0.0,0.0,0.0,0.0,0.0,0.0,0.0,0.0,0.0,0.0,0.0,0.0,0.0,0.0,0.0,0.0,0.0,0.0,0.0,0.0,0.0,0.0,0.0,0.0,0.0,0.0,0.0,0.0,0.0,0.0,0.0,0.0,0.0,0.0,0.0,0.0,0.0,0.0,0.0,0.0,0.0,0.0,0.0,0.0,0.0,0.0,0.0,0.0,0.0,0.0,0.0,0.0,0.0,0.0,0.0,0.0,0.0,0.0,0.0,0.0,0.0,0.0,0.0,0.0,0.0,0.0,0.0,0.0,0.0,0.0,0.0,0.0,0.0,0.0,0.0,0.0,0.0,0.0,0.0,0.0,0.0,0.0,0.0,0.0,0.0
0.0002854469650424181,0.0003010074293931178,0.00031592574347799916,0.0003292054665177981,0.0003402129302776447,0.0003488982031793907,0.00035566683371513326,0.0003618456855248633,0.0003685820390560785,0.00037673672971673004,0.00038656960396047654,0.0003974656627707145,0.0004083605764463336,0.0004175597866607007,0.00042330547383872933,0.00042424100474156235,0.0004197354635464064,0.000410182895305452,0.00039680766029806275,0.00038136596453045506,0.0003656824357720204,0.00035113429959375883,0.00033847127256814993,0.00032755834345419584,0.00031753461168732174,0.00030712386680247845,0.00029498528727449493,0.0002802754733588305,0.0002627338793902196,0.00024280804472676194,0.0002215326852870303,0.00020018635781926034,0.0001802071652447337,0.00016261786249947269,0.00014790177335832698,0.00013594150377158214,0.0001260130147321309,0.00011731645697240372,0.00010888936212640568,9.99839488428905e-05,9.025785933541205e-05,7.974126470150191e-05,6.915517954068233e-05,5.927896113791996e-05,5.0893410622635234e-05,4.4574214899241946e-05,4.042857573330389e-05,3.8475436398809166e-05,3.8131351279004946e-05,3.858804991922987e-05,3.904758633760735e-05,3.877798404130014e-05,3.784883438871808e-05,3.6384860662863904e-05,3.477071250097126e-05,3.352095777597275e-05,3.2907327501860655e-05,3.357633384177032e-05,3.549929447177356e-05,3.833878095707159e-05,4.157415074013556e-05,0.0,0.0,0.0,0.0,0.0,0.0,0.0,0.0,0.0,0.0,0.0,0.0,0.0,0.0,0.0,0.0,0.0,0.0,0.0,0.0,0.0,0.0,0.0,0.0,0.0,0.0,0.0,0.0,0.0,0.0,0.0,0.0,0.0,0.0,0.0,0.0,0.0,0.0,0.0,0.0,0.0,0.0,0.0,0.0,0.0,0.0,0.0,0.0,0.0,0.0,0.0,0.0,0.0,0.0,0.0,0.0,0.0,0.0,0.0,0.0,0.0,0.0,0.0,0.0,0.0,0.0,0.0,0.0,0.0,0.0,0.0,0.0,0.0,0.0,0.0,0.0,0.0,0.0,0.0,0.0,0.0,0.0,0.0,0.0,0.0,0.0,0.0,0.0,0.0,0.0,0.0,0.0,0.0,0.0,0.0,0.0,0.0,0.0,0.0,0.0,0.0,0.0,0.0,0.0,0.0,0.0,0.0,0.0,0.0,0.0,0.0,0.0,0.0,0.0,0.0,0.0,0.0,0.0,0.0,0.0,0.0,0.0,0.0,0.0,0.0,0.0,0.0,0.0,0.0,0.0,0.0,0.0,0.0,0.0,0.0,0.0,0.0,0.0,0.0,0.0,0.0,0.0,0.0,0.0,0.0,0.0,0.0,0.0,0.0,0.0,0.0,0.0,0.0,0.0,0.0,0.0,0.0,0.0,0.0,0.0,0.0,0.0,0.0,0.0,0.0,0.0,0.0,0.0,0.0,0.0,0.0,0.0,0.0,0.0,0.0,0.0,0.0,0.0,0.0,0.0,0.0,0.0,0.0,0.0,0.0,0.0,0.0,0.0,0.0,0.0,0.0,0.0,0.0,0.0,0.0,0.0,0.0,0.0,0.0,0.0,0.0,0.0,0.0,0.0,0.0,0.0,0.0,0.0,0.0,0.0,0.0,0.0,0.0,0.0,0.0,0.0,0.0,0.0,0.0,0.0,0.0,0.0,0.0,0.0,0.0,0.0,0.0,0.0,0.0,0.0,0.0,0.0,0.0,0.0,0.0,0.0,0.0,0.0,0.0
3.877798404130014e-05,3.784883438871808e-05,3.6384860662863904e-05,3.477071250097126e-05,3.352095777597275e-05,3.2907327501860655e-05,3.357633384177032e-05,3.549929447177356e-05,3.833878095707159e-05,4.157415074013556e-05,4.440271434832565e-05,4.68105237156179e-05,4.8524666583564176e-05,4.944263349699812e-05,4.9627343704298364e-05,4.8945312532323846e-05,4.808607668511254e-05,4.719779622533148e-05,4.632107016139382e-05,4.54352266330828e-05,4.427216266670537e-05,4.323700337487458e-05,4.2357776476373746e-05,4.167181437894167e-05,4.1243109561867226e-05,4.098049350524027e-05,4.127534093537172e-05,4.213341651367867e-05,4.346626281699762e-05,4.5112084343087105e-05,4.674258016187633e-05,4.830229277958209e-05,4.944995828550606e-05,4.9798711244587104e-05,4.898105912430698e-05,4.667432268926588e-05,4.28619200653169e-05,3.758312127340521e-05,3.107958740077342e-05,2.380356817130172e-05,1.627323131628498e-05,9.35474133284778e-06,3.7711345571147104e-06,9.256373565376472e-08,-1.3739227817035465e-06,-8.212054710677811e-07,1.5888050456823574e-06,5.341462716433268e-06,9.803144433920486e-06,1.4349971795605266e-05,1.8326416580407943e-05,2.1652924020064262e-05,2.44377915374234e-05,2.7061502350770862e-05,3.007386637291408e-05,3.388811987418302e-05,3.912023908075699e-05,4.604518278268883e-05,5.460906698720027e-05,6.43837479717106e-05,7.443213031826518e-05,0.0,0.0,0.0,0.0,0.0,0.0,0.0,0.0,0.0,0.0,0.0,0.0,0.0,0.0,0.0,0.0,0.0,0.0,0.0,0.0,0.0,0.0,0.0,0.0,0.0,0.0,0.0,0.0,0.0,0.0,0.0,0.0,0.0,0.0,0.0,0.0,0.0,0.0,0.0,0.0,0.0,0.0,0.0,0.0,0.0,0.0,0.0,0.0,0.0,0.0,0.0,0.0,0.0,0.0,0.0,0.0,0.0,0.0,0.0,0.0,0.0,0.0,0.0,0.0,0.0,0.0,0.0,0.0,0.0,0.0,0.0,0.0,0.0,0.0,0.0,0.0,0.0,0.0,0.0,0.0,0.0,0.0,0.0,0.0,0.0,0.0,0.0,0.0,0.0,0.0,0.0,0.0,0.0,0.0,0.0,0.0,0.0,0.0,0.0,0.0,0.0,0.0,0.0,0.0,0.0,0.0,0.0,0.0,0.0,0.0,0.0,0.0,0.0,0.0,0.0,0.0,0.0,0.0,0.0,0.0,0.0,0.0,0.0,0.0,0.0,0.0,0.0,0.0,0.0,0.0,0.0,0.0,0.0,0.0,0.0,0.0,0.0,0.0,0.0,0.0,0.0,0.0,0.0,0.0,0.0,0.0,0.0,0.0,0.0,0.0,0.0,0.0,0.0,0.0,0.0,0.0,0.0,0.0,0.0,0.0,0.0,0.0,0.0,0.0,0.0,0.0,0.0,0.0,0.0,0.0,0.0,0.0,0.0,0.0,0.0,0.0,0.0,0.0,0.0,0.0,0.0,0.0,0.0,0.0,0.0,0.0,0.0,0.0,0.0,0.0,0.0,0.0,0.0,0.0,0.0,0.0,0.0,0.0,0.0,0.0,0.0,0.0,0.0,0.0,0.0,0.0,0.0,0.0,0.0,0.0,0.0,0.0,0.0,0.0,0.0,0.0,0.0,0.0,0.0,0.0,0.0,0.0,0.0,0.0,0.0,0.0,0.0,0.0,0.0,0.0,0.0,0.0,0.0,0.0,0.0,0.0,0.0,0.0,0.0
2.1652924020064262e-05,2.44377915374234e-05,2.7061502350770862e-05,3.007386637291408e-05,3.388811987418302e-05,3.912023908075699e-05,4.604518278268883e-05,5.460906698720027e-05,6.43837479717106e-05,7.443213031826518e-05,8.389005833384211e-05,9.169702276472018e-05,9.687657338883648e-05,9.869362957050712e-05,9.662587681121896e-05,9.092337913425402e-05,8.21907853335905e-05,7.142043713524729e-05,5.9825822691290205e-05,4.8451682511903386e-05,3.8475504961409296e-05,3.0561073974358215e-05,2.4854633824703584e-05,2.0958015812073274e-05,1.7837230594177927e-05,1.460841491387784e-05,1.0337048542076005e-05,4.44432076870917e-06,-3.088366779063024e-06,-1.1856286428876209e-05,-2.0401976462721017e-05,-2.698511465696387e-05,-2.975499676280482e-05,-2.7134749370199318e-05,-1.8432174484289253e-05,-3.280018147195438e-06,1.7632326621236466e-05,4.281489134531878e-05,7.019230191673331e-05,9.711594378281612e-05,0.00012162922642869158,0.00014207034567385822,0.00015745372178366783,0.00016751935320366595,0.0001723107628238798,0.00017303325962228134,0.00017105413116024227,0.0001678207707647837,0.0001645865081081115,0.00016185170715457472,0.0001603004484621683,0.00015999282874137625,0.00016062918566962103,0.0001616536630125571,0.0001620433690236244,0.00016152949517132863,0.00015989669203203075,0.00015725202261147704,0.00015398231790734996,0.00015035090187908912,0.0001472496657168402,0.0,0.0,0.0,0.0,0.0,0.0,0.0,0.0,0.0,0.0,0.0,0.0,0.0,0.0,0.0,0.0,0.0,0.0,0.0,0.0,0.0,0.0,0.0,0.0,0.0,0.0,0.0,0.0,0.0,0.0,0.0,0.0,0.0,0.0,0.0,0.0,0.0,0.0,0.0,0.0,0.0,0.0,0.0,0.0,0.0,0.0,0.0,0.0,0.0,0.0,0.0,0.0,0.0,0.0,0.0,0.0,0.0,0.0,0.0,0.0,0.0,0.0,0.0,0.0,0.0,0.0,0.0,0.0,0.0,0.0,0.0,0.0,0.0,0.0,0.0,0.0,0.0,0.0,0.0,0.0,0.0,0.0,0.0,0.0,0.0,0.0,0.0,0.0,0.0,0.0,0.0,0.0,0.0,0.0,0.0,0.0,0.0,0.0,0.0,0.0,0.0,0.0,0.0,0.0,0.0,0.0,0.0,0.0,0.0,0.0,0.0,0.0,0.0,0.0,0.0,0.0,0.0,0.0,0.0,0.0,0.0,0.0,0.0,0.0,0.0,0.0,0.0,0.0,0.0,0.0,0.0,0.0,0.0,0.0,0.0,0.0,0.0,0.0,0.0,0.0,0.0,0.0,0.0,0.0,0.0,0.0,0.0,0.0,0.0,0.0,0.0,0.0,0.0,0.0,0.0,0.0,0.0,0.0,0.0,0.0,0.0,0.0,0.0,0.0,0.0,0.0,0.0,0.0,0.0,0.0,0.0,0.0,0.0,0.0,0.0,0.0,0.0,0.0,0.0,0.0,0.0,0.0,0.0,0.0,0.0,0.0,0.0,0.0,0.0,0.0,0.0,0.0,0.0,0.0,0.0,0.0,0.0,0.0,0.0,0.0,0.0,0.0,0.0,0.0,0.0,0.0,0.0,0.0,0.0,0.0,0.0,0.0,0.0,0.0,0.0,0.0,0.0,0.0,0.0,0.0,0.0,0.0,0.0,0.0,0.0,0.0,0.0,0.0,0.0,0.0,0.0,0.0,0.0,0.0,0.0,0.0,0.0,0.0,0.0
0.00015999282874137625,0.00016062918566962103,0.0001616536630125571,0.0001620433690236244,0.00016152949517132863,0.00015989669203203075,0.00015725202261147704,0.00015398231790734996,0.00015035090187908912,0.0001472496657168402,0.00014530389141778,0.0001449434560631189,0.00014631097280214282,0.00014900622420960686,0.00015286688852588498,0.00015741271896671074,0.00016216216974755925,0.0001667432374295618,0.00017081965261847996,0.0001745805443297289,0.000178295439182637,0.00018235775590878223,0.00018717550205698085,0.00019299123825960415,0.00019998551294115444,0.0002080535006371351,0.00021686352174769125,0.00022593148028432237,0.0002347341441596148,0.00024291364667714967,0.00025038809198254884,0.00025743841070494686,0.0002646874585116639,0.00027299676032992,0.0002831347962964763,0.00029562013914672796,0.0003104586230307508,0.0003270297180666046,0.00034412323050569136,0.00036024644605185945,0.00037383741174268966,0.0003837103937707675,0.00038937197762154525,0.0003910922221210369,0.00039007591240509254,0.00038777189344400267,0.0003855994862989204,0.0003845383765286339,0.0003847664058773151,0.0003858395937293956,0.0003864497028914625,0.00038492556625957335,0.0003797047754357226,0.00036970419488121446,0.0003548836243836642,0.00033591681283164716,0.00031417374120091515,0.0002913947106952846,0.0002692160937381752,0.0002490608369222535,0.00023152000374391415,0.0,0.0,0.0,0.0,0.0,0.0,0.0,0.0,0.0,0.0,0.0,0.0,0.0,0.0,0.0,0.0,0.0,0.0,0.0,0.0,0.0,0.0,0.0,0.0,0.0,0.0,0.0,0.0,0.0,0.0,0.0,0.0,0.0,0.0,0.0,0.0,0.0,0.0,0.0,0.0,0.0,0.0,0.0,0.0,0.0,0.0,0.0,0.0,0.0,0.0,0.0,0.0,0.0,0.0,0.0,0.0,0.0,0.0,0.0,0.0,0.0,0.0,0.0,0.0,0.0,0.0,0.0,0.0,0.0,0.0,0.0,0.0,0.0,0.0,0.0,0.0,0.0,0.0,0.0,0.0,0.0,0.0,0.0,0.0,0.0,0.0,0.0,0.0,0.0,0.0,0.0,0.0,0.0,0.0,0.0,0.0,0.0,0.0,0.0,0.0,0.0,0.0,0.0,0.0,0.0,0.0,0.0,0.0,0.0,0.0,0.0,0.0,0.0,0.0,0.0,0.0,0.0,0.0,0.0,0.0,0.0,0.0,0.0,0.0,0.0,0.0,0.0,0.0,0.0,0.0,0.0,0.0,0.0,0.0,0.0,0.0,0.0,0.0,0.0,0.0,0.0,0.0,0.0,0.0,0.0,0.0,0.0,0.0,0.0,0.0,0.0,0.0,0.0,0.0,0.0,0.0,0.0,0.0,0.0,0.0,0.0,0.0,0.0,0.0,0.0,0.0,0.0,0.0,0.0,0.0,0.0,0.0,0.0,0.0,0.0,0.0,0.0,0.0,0.0,0.0,0.0,0.0,0.0,0.0,0.0,0.0,0.0,0.0,0.0,0.0,0.0,0.0,0.0,0.0,0.0,0.0,0.0,0.0,0.0,0.0,0.0,0.0,0.0,0.0,0.0,0.0,0.0,0.0,0.0,0.0,0.0,0.0,0.0,0.0,0.0,0.0,0.0,0.0,0.0,0.0,0.0,0.0,0.0,0.0,0.0,0.0,0.0,0.0,0.0,0.0,0.0,0.0,0.0,0.0,0.0,0.0,0.0,0.0,0.0
0.00038492556625957335,0.0003797047754357226,0.00036970419488121446,0.0003548836243836642,0.00033591681283164716,0.00031417374120091515,0.0002913947106952846,0.0002692160937381752,0.0002490608369222535,0.00023152000374391415,0.00021644213360306756,0.00020308464595484657,0.0001903331169967586,0.000177288461688232,0.0001632019905964007,0.00014779787731245144,0.00013132857121858329,0.0001144025486882093,9.808080696670611e-05,8.32043050716722e-05,7.032343159671175e-05,5.957249648232003e-05,5.0567337258353046e-05,4.286181274956262e-05,3.5663215576596403e-05,2.824285082641605e-05,2.0159939615159097e-05,1.129384784172677e-05,2.2478366503939746e-06,-6.320850121491751e-06,-1.3686539040042592e-05,-1.925261725200184e-05,-2.2826953643140267e-05,-2.426245052055236e-05,-2.405855989776408e-05,-2.2977937659764334e-05,-2.1814476165725652e-05,-2.13086049691139e-05,-2.1448663034046292e-05,-2.221287218351622e-05,-2.3328715183119555e-05,-2.4376335079449466e-05,-2.50973806504334e-05,-2.4869871278310565e-05,-2.371632039464196e-05,-2.192703786068939e-05,-1.9927429064107944e-05,-1.8319875242148107e-05,-1.7005618363397288e-05,-1.6119073171649864e-05,-1.565351409084264e-05,-1.5478523048766425e-05,-1.5629256700569234e-05,-1.5534340035094687e-05,-1.5134519111747011e-05,-1.4506688006591046e-05,-1.380038485396774e-05,-1.3336274012199767e-05,-1.2910212723454059e-05,-1.2571790292664998e-05,-1.2325531461910768e-05,0.0,0.0,0.0,0.0,0.0,0.0,0.0,0.0,0.0,0.0,0.0,0.0,0.0,0.0,0.0,0.0,0.0,0.0,0.0,0.0,0.0,0.0,0.0,0.0,0.0,0.0,0.0,0.0,0.0,0.0,0.0,0.0,0.0,0.0,0.0,0.0,0.0,0.0,0.0,0.0,0.0,0.0,0.0,0.0,0.0,0.0,0.0,0.0,0.0,0.0,0.0,0.0,0.0,0.0,0.0,0.0,0.0,0.0,0.0,0.0,0.0,0.0,0.0,0.0,0.0,0.0,0.0,0.0,0.0,0.0,0.0,0.0,0.0,0.0,0.0,0.0,0.0,0.0,0.0,0.0,0.0,0.0,0.0,0.0,0.0,0.0,0.0,0.0,0.0,0.0,0.0,0.0,0.0,0.0,0.0,0.0,0.0,0.0,0.0,0.0,0.0,0.0,0.0,0.0,0.0,0.0,0.0,0.0,0.0,0.0,0.0,0.0,0.0,0.0,0.0,0.0,0.0,0.0,0.0,0.0,0.0,0.0,0.0,0.0,0.0,0.0,0.0,0.0,0.0,0.0,0.0,0.0,0.0,0.0,0.0,0.0,0.0,0.0,0.0,0.0,0.0,0.0,0.0,0.0,0.0,0.0,0.0,0.0,0.0,0.0,0.0,0.0,0.0,0.0,0.0,0.0,0.0,0.0,0.0,0.0,0.0,0.0,0.0,0.0,0.0,0.0,0.0,0.0,0.0,0.0,0.0,0.0,0.0,0.0,0.0,0.0,0.0,0.0,0.0,0.0,0.0,0.0,0.0,0.0,0.0,0.0,0.0,0.0,0.0,0.0,0.0,0.0,0.0,0.0,0.0,0.0,0.0,0.0,0.0,0.0,0.0,0.0,0.0,0.0,0.0,0.0,0.0,0.0,0.0,0.0,0.0,0.0,0.0,0.0,0.0,0.0,0.0,0.0,0.0,0.0,0.0,0.0,0.0,0.0,0.0,0.0,0.0,0.0,0.0,0.0,0.0,0.0,0.0,0.0,0.0,0.0,0.0,0.0,0.0
-1.5478523048766425e-05,-1.5629256700569234e-05,-1.5534340035094687e-05,-1.5134519111747011e-05,-1.4506688006591046e-05,-1.380038485396774e-05,-1.3336274012199767e-05,-1.2910212723454059e-05,-1.2571790292664998e-05,-1.2325531461910768e-05,-1.2122246659169057e-05,-1.1987435321910249e-05,-1.1618697708655326e-05,-1.096724396731384e-05,-1.0053622963214576e-05,-8.955604125483427e-06,-7.845265677951774e-06,-6.7641384905884175e-06,-5.915977545398903e-06,-5.524650217837186e-06,-5.788961591797795e-06,-6.826617206201469e-06,-8.645628773198304e-06,-1.1186519022442364e-05,-1.4284883751147542e-05,-1.7683355741883173e-05,-2.1216083239708815e-05,-2.4417757941923315e-05,-2.6965373433589393e-05,-2.8674783359516045e-05,-2.957774989196855e-05,-3.0253365163822174e-05,-3.087190846747073e-05,-3.17543070870776e-05,-3.311076952214695e-05,-3.4973686214997394e-05,-3.738117918846258e-05,-3.9778469446335725e-05,-4.152708801755931e-05,-4.192633717132226e-05,-4.036962253802625e-05,-3.659837873791213e-05,-3.0466209448076842e-05,-2.218553694581806e-05,-1.2257186580338876e-05,-1.4096921309876536e-06,9.393904331378158e-06,1.9342536907003092e-05,2.7689235989962667e-05,3.38697264923642e-05,3.755023827605093e-05,3.857264040323136e-05,3.7196942133957384e-05,3.392069211690835e-05,2.9450765170357655e-05,2.4592553330946927e-05,2.0014007657545888e-05,1.6355560694814e-05,1.3901578473078742e-05,1.2519945644629588e-05,1.1634868385842911e-05,0.0,0.0,0.0,0.0,0.0,0.0,0.0,0.0,0.0,0.0,0.0,0.0,0.0,0.0,0.0,0.0,0.0,0.0,0.0,0.0,0.0,0.0,0.0,0.0,0.0,0.0,0.0,0.0,0.0,0.0,0.0,0.0,0.0,0.0,0.0,0.0,0.0,0.0,0.0,0.0,0.0,0.0,0.0,0.0,0.0,0.0,0.0,0.0,0.0,0.0,0.0,0.0,0.0,0.0,0.0,0.0,0.0,0.0,0.0,0.0,0.0,0.0,0.0,0.0,0.0,0.0,0.0,0.0,0.0,0.0,0.0,0.0,0.0,0.0,0.0,0.0,0.0,0.0,0.0,0.0,0.0,0.0,0.0,0.0,0.0,0.0,0.0,0.0,0.0,0.0,0.0,0.0,0.0,0.0,0.0,0.0,0.0,0.0,0.0,0.0,0.0,0.0,0.0,0.0,0.0,0.0,0.0,0.0,0.0,0.0,0.0,0.0,0.0,0.0,0.0,0.0,0.0,0.0,0.0,0.0,0.0,0.0,0.0,0.0,0.0,0.0,0.0,0.0,0.0,0.0,0.0,0.0,0.0,0.0,0.0,0.0,0.0,0.0,0.0,0.0,0.0,0.0,0.0,0.0,0.0,0.0,0.0,0.0,0.0,0.0,0.0,0.0,0.0,0.0,0.0,0.0,0.0,0.0,0.0,0.0,0.0,0.0,0.0,0.0,0.0,0.0,0.0,0.0,0.0,0.0,0.0,0.0,0.0,0.0,0.0,0.0,0.0,0.0,0.0,0.0,0.0,0.0,0.0,0.0,0.0,0.0,0.0,0.0,0.0,0.0,0.0,0.0,0.0,0.0,0.0,0.0,0.0,0.0,0.0,0.0,0.0,0.0,0.0,0.0,0.0,0.0,0.0,0.0,0.0,0.0,0.0,0.0,0.0,0.0,0.0,0.0,0.0,0.0,0.0,0.0,0.0,0.0,0.0,0.0,0.0,0.0,0.0,0.0,0.0,0.0,0.0,0.0,0.0,0.0,0.0,0.0,0.0,0.0,0.0
3.857264040323136e-05,3.7196942133957384e-05,3.392069211690835e-05,2.9450765170357655e-05,2.4592553330946927e-05,2.0014007657545888e-05,1.6355560694814e-05,1.3901578473078742e-05,1.2519945644629588e-05,1.1634868385842911e-05,1.020608498080572e-05,7.222232697701336e-06,1.771627612510119e-06,-6.602283375738863e-06,-1.7637639096788316e-05,-3.0325201074908675e-05,-4.252209506288357e-05,-5.1421288575919706e-05,-5.3871357625475464e-05,-4.691014657941953e-05,-2.85060887133327e-05,2.3943786401880137e-06,4.516728811033978e-05,9.748114408371368e-05,0.0001554613410256626,0.00021393250781922323,0.00026768910586846904,0.0003118327134872429,0.00034258912960445913,0.0003578328286307447,0.0003570898419847351,0.0003422134338133694,0.00031650469128507097,0.00028421720929387777,0.00024980472219614404,0.0002169179703184543,0.00018865839743144178,0.00016669656736451713,0.00015135229203764818,0.0001417766157615434,0.00013601929010309926,0.00013239425567339807,0.00012930874637725757,0.00012571862116485025,0.00012123695349377528,0.00011578625381799141,0.00011020827916297244,0.0001053772625855371,0.00010206320011220815,0.00010069729122600716,0.00010101412302264276,0.00010281674544835972,0.00010551860846697039,0.00010849109027562312,0.00011123721655615542,0.00011335308922770243,0.00011504059259948562,0.00011666994740192014,0.00011875361995161848,0.00012177714188630369,0.00012597247200445984,0.0,0.0,0.0,0.0,0.0,0.0,0.0,0.0,0.0,0.0,0.0,0.0,0.0,0.0,0.0,0.0,0.0,0.0,0.0,0.0,0.0,0.0,0.0,0.0,0.0,0.0,0.0,0.0,0.0,0.0,0.0,0.0,0.0,0.0,0.0,0.0,0.0,0.0,0.0,0.0,0.0,0.0,0.0,0.0,0.0,0.0,0.0,0.0,0.0,0.0,0.0,0.0,0.0,0.0,0.0,0.0,0.0,0.0,0.0,0.0,0.0,0.0,0.0,0.0,0.0,0.0,0.0,0.0,0.0,0.0,0.0,0.0,0.0,0.0,0.0,0.0,0.0,0.0,0.0,0.0,0.0,0.0,0.0,0.0,0.0,0.0,0.0,0.0,0.0,0.0,0.0,0.0,0.0,0.0,0.0,0.0,0.0,0.0,0.0,0.0,0.0,0.0,0.0,0.0,0.0,0.0,0.0,0.0,0.0,0.0,0.0,0.0,0.0,0.0,0.0,0.0,0.0,0.0,0.0,0.0,0.0,0.0,0.0,0.0,0.0,0.0,0.0,0.0,0.0,0.0,0.0,0.0,0.0,0.0,0.0,0.0,0.0,0.0,0.0,0.0,0.0,0.0,0.0,0.0,0.0,0.0,0.0,0.0,0.0,0.0,0.0,0.0,0.0,0.0,0.0,0.0,0.0,0.0,0.0,0.0,0.0,0.0,0.0,0.0,0.0,0.0,0.0,0.0,0.0,0.0,0.0,0.0,0.0,0.0,0.0,0.0,0.0,0.0,0.0,0.0,0.0,0.0,0.0,0.0,0.0,0.0,0.0,0.0,0.0,0.0,0.0,0.0,0.0,0.0,0.0,0.0,0.0,0.0,0.0,0.0,0.0,0.0,0.0,0.0,0.0,0.0,0.0,0.0,0.0,0.0,0.0,0.0,0.0,0.0,0.0,0.0,0.0,0.0,0.0,0.0,0.0,0.0,0.0,0.0,0.0,0.0,0.0,0.0,0.0,0.0,0.0,0.0,0.0,0.0,0.0,0.0,0.0,0.0,0.0
0.00010281674544835972,0.00010551860846697039,0.00010849109027562312,0.00011123721655615542,0.00011335308922770243,0.00011504059259948562,0.00011666994740192014,0.00011875361995161848,0.00012177714188630369,0.00012597247200445984,0.00013143247975687869,0.00013792203210705062,0.00014499284065206826,0.00015211634189963061,0.00015882923771822765,0.00016492871235238777,0.0001705489179422601,0.0001761580999995106,0.0001824555419129575,0.00019022224497563614,0.000199978931428826,0.00021193301594390714,0.0002258120239218736,0.0002408692105907468,0.00025595301237387336,0.0002700501900395619,0.00028219774514720965,0.00029189869943695916,0.00029928287926853607,0.0003049024305859024,0.00031022142474437293,0.00031635059826717914,0.00032402947168981794,0.0003333725961967034,0.0003436348536100534,0.0003538027218618093,0.0003622091747826765,0.0003671774201207771,0.0003674623131248708,0.00036250265103176583,0.00035285878022640454,0.00033971592841903564,0.00032471479178638145,0.00030953526235301274,0.0002954100324773207,0.0002830741567383429,0.0002723277551773533,0.0002622702278678354,0.0002516082115811547,0.00023900092059541753,0.00022364346243542528,0.00020526316569961672,0.0001843046365267745,0.00016183557879573658,0.00013923706064563525,0.00011808953311605792,9.954996550961938e-05,8.422045937486627e-05,7.20629460103185e-05,6.240665750323054e-05,5.4390753231819574e-05,0.0,0.0,0.0,0.0,0.0,0.0,0.0,0.0,0.0,0.0,0.0,0.0,0.0,0.0,0.0,0.0,0.0,0.0,0.0,0.0,0.0,0.0,0.0,0.0,0.0,0.0,0.0,0.0,0.0,0.0,0.0,0.0,0.0,0.0,0.0,0.0,0.0,0.0,0.0,0.0,0.0,0.0,0.0,0.0,0.0,0.0,0.0,0.0,0.0,0.0,0.0,0.0,0.0,0.0,0.0,0.0,0.0,0.0,0.0,0.0,0.0,0.0,0.0,0.0,0.0,0.0,0.0,0.0,0.0,0.0,0.0,0.0,0.0,0.0,0.0,0.0,0.0,0.0,0.0,0.0,0.0,0.0,0.0,0.0,0.0,0.0,0.0,0.0,0.0,0.0,0.0,0.0,0.0,0.0,0.0,0.0,0.0,0.0,0.0,0.0,0.0,0.0,0.0,0.0,0.0,0.0,0.0,0.0,0.0,0.0,0.0,0.0,0.0,0.0,0.0,0.0,0.0,0.0,0.0,0.0,0.0,0.0,0.0,0.0,0.0,0.0,0.0,0.0,0.0,0.0,0.0,0.0,0.0,0.0,0.0,0.0,0.0,0.0,0.0,0.0,0.0,0.0,0.0,0.0,0.0,0.0,0.0,0.0,0.0,0.0,0.0,0.0,0.0,0.0,0.0,0.0,0.0,0.0,0.0,0.0,0.0,0.0,0.0,0.0,0.0,0.0,0.0,0.0,0.0,0.0,0.0,0.0,0.0,0.0,0.0,0.0,0.0,0.0,0.0,0.0,0.0,0.0,0.0,0.0,0.0,0.0,0.0,0.0,0.0,0.0,0.0,0.0,0.0,0.0,0.0,0.0,0.0,0.0,0.0,0.0,0.0,0.0,0.0,0.0,0.0,0.0,0.0,0.0,0.0,0.0,0.0,0.0,0.0,0.0,0.0,0.0,0.0,0.0,0.0,0.0,0.0,0.0,0.0,0.0,0.0,0.0,0.0,0.0,0.0,0.0,0.0,0.0,0.0,0.0,0.0,0.0,0.0,0.0,0.0
0.00020526316569961672,0.0001843046365267745,0.00016183557879573658,0.00013923706064563525,0.00011808953311605792,9.954996550961938e-05,8.422045937486627e-05,7.20629460103185e-05,6.240665750323054e-05,5.4390753231819574e-05,4.692578852329076e-05,3.9101107868588984e-05,3.0421814746138532e-05,2.0844608813961033e-05,1.1046080226673362e-05,1.8630452440016896e-06,-5.801455149432992e-06,-1.1219316518041435e-05,-1.4123505286564971e-05,-1.4439430883647603e-05,-1.2726353822659617e-05,-9.848333773510244e-06,-6.736021188838605e-06,-4.27730067787542e-06,-2.669162667571945e-06,-1.9869129507123595e-06,-1.994378269398489e-06,-2.252725859635772e-06,-2.4358859875573967e-06,-1.883964950845278e-06,-4.900389756550919e-07,1.5795054081427725e-06,3.977529485064194e-06,6.1274923667567696e-06,8.014108693312617e-06,9.38528776047333e-06,1.011264483569045e-05,1.0207784829764162e-05,9.597350536394799e-06,8.810503964011898e-06,7.958030795437678e-06,7.0723971366007785e-06,6.149943984695231e-06,4.981811251296442e-06,3.952948661939688e-06,3.114228056817013e-06,2.4934182979247244e-06,2.0921031396263e-06,1.6454045793556568e-06,1.4222506131824558e-06,1.3489154203700187e-06,1.3291638813154241e-06,1.2840684385906805e-06,1.0130106316410727e-06,7.522932932214965e-07,5.54956435056222e-07,4.603269541042911e-07,4.760337375550625e-07,4.755192894603668e-07,5.16144658033718e-07,5.427113663764421e-07,0.0,0.0,0.0,0.0,0.0,0.0,0.0,0.0,0.0,0.0,0.0,0.0,0.0,0.0,0.0,0.0,0.0,0.0,0.0,0.0,0.0,0.0,0.0,0.0,0.0,0.0,0.0,0.0,0.0,0.0,0.0,0.0,0.0,0.0,0.0,0.0,0.0,0.0,0.0,0.0,0.0,0.0,0.0,0.0,0.0,0.0,0.0,0.0,0.0,0.0,0.0,0.0,0.0,0.0,0.0,0.0,0.0,0.0,0.0,0.0,0.0,0.0,0.0,0.0,0.0,0.0,0.0,0.0,0.0,0.0,0.0,0.0,0.0,0.0,0.0,0.0,0.0,0.0,0.0,0.0,0.0,0.0,0.0,0.0,0.0,0.0,0.0,0.0,0.0,0.0,0.0,0.0,0.0,0.0,0.0,0.0,0.0,0.0,0.0,0.0,0.0,0.0,0.0,0.0,0.0,0.0,0.0,0.0,0.0,0.0,0.0,0.0,0.0,0.0,0.0,0.0,0.0,0.0,0.0,0.0,0.0,0.0,0.0,0.0,0.0,0.0,0.0,0.0,0.0,0.0,0.0,0.0,0.0,0.0,0.0,0.0,0.0,0.0,0.0,0.0,0.0,0.0,0.0,0.0,0.0,0.0,0.0,0.0,0.0,0.0,0.0,0.0,0.0,0.0,0.0,0.0,0.0,0.0,0.0,0.0,0.0,0.0,0.0,0.0,0.0,0.0,0.0,0.0,0.0,0.0,0.0,0.0,0.0,0.0,0.0,0.0,0.0,0.0,0.0,0.0,0.0,0.0,0.0,0.0,0.0,0.0,0.0,0.0,0.0,0.0,0.0,0.0,0.0,0.0,0.0,0.0,0.0,0.0,0.0,0.0,0.0,0.0,0.0,0.0,0.0,0.0,0.0,0.0,0.0,0.0,0.0,0.0,0.0,0.0,0.0,0.0,0.0,0.0,0.0,0.0,0.0,0.0,0.0,0.0,0.0,0.0,0.0,0.0,0.0,0.0,0.0,0.0,0.0,0.0,0.0,0.0,0.0,0.0,0.0
1.3291638813154241e-06,1.2840684385906805e-06,1.0130106316410727e-06,7.522932932214965e-07,5.54956435056222e-07,4.603269541042911e-07,4.760337375550625e-07,4.755192894603668e-07,5.16144658033718e-07,5.427113663764421e-07,5.111915390028963e-07,4.0990836501926295e-07,2.2769298132753246e-07,7.086725771506553e-08,1.0397752928496459e-08,9.71549138306541e-08,3.4378299248346393e-07,7.374436496606143e-07,1.1935023441060514e-06,1.6342205215187738e-06,1.999955746927313e-06,2.2724018926134832e-06,2.3048287445354544e-06,2.3423833349787132e-06,2.583711539369524e-06,3.19280579748391e-06,4.201020792743501e-06,5.067730089226451e-06,5.808069548931492e-06,6.2170043727187855e-06,6.156609498515141e-06,5.616485100463991e-06,4.478670382199932e-06,3.3457062168123373e-06,2.881896534719047e-06,3.8652455511437055e-06,7.031949408184481e-06,1.2741109117973165e-05,2.135791539235902e-05,3.2772714880263395e-05,4.647606555632089e-05,6.15866284726406e-05,7.679700974919596e-05,9.093420437632493e-05,0.00010279980657162506,0.0001114129227605789,0.00011614130753709673,0.00011668031189457557,0.00011341605350333429,0.00010713676583604432,9.897345986677586e-05,9.020305222832326e-05,8.189281355366928e-05,7.501630714824934e-05,6.99971921717729e-05,6.66660651018732e-05,6.426479691954973e-05,6.146233073006912e-05,5.699675659362201e-05,4.9745396386242886e-05,3.9153866705569844e-05,0.0,0.0,0.0,0.0,0.0,0.0,0.0,0.0,0.0,0.0,0.0,0.0,0.0,0.0,0.0,0.0,0.0,0.0,0.0,0.0,0.0,0.0,0.0,0.0,0.0,0.0,0.0,0.0,0.0,0.0,0.0,0.0,0.0,0.0,0.0,0.0,0.0,0.0,0.0,0.0,0.0,0.0,0.0,0.0,0.0,0.0,0.0,0.0,0.0,0.0,0.0,0.0,0.0,0.0,0.0,0.0,0.0,0.0,0.0,0.0,0.0,0.0,0.0,0.0,0.0,0.0,0.0,0.0,0.0,0.0,0.0,0.0,0.0,0.0,0.0,0.0,0.0,0.0,0.0,0.0,0.0,0.0,0.0,0.0,0.0,0.0,0.0,0.0,0.0,0.0,0.0,0.0,0.0,0.0,0.0,0.0,0.0,0.0,0.0,0.0,0.0,0.0,0.0,0.0,0.0,0.0,0.0,0.0,0.0,0.0,0.0,0.0,0.0,0.0,0.0,0.0,0.0,0.0,0.0,0.0,0.0,0.0,0.0,0.0,0.0,0.0,0.0,0.0,0.0,0.0,0.0,0.0,0.0,0.0,0.0,0.0,0.0,0.0,0.0,0.0,0.0,0.0,0.0,0.0,0.0,0.0,0.0,0.0,0.0,0.0,0.0,0.0,0.0,0.0,0.0,0.0,0.0,0.0,0.0,0.0,0.0,0.0,0.0,0.0,0.0,0.0,0.0,0.0,0.0,0.0,0.0,0.0,0.0,0.0,0.0,0.0,0.0,0.0,0.0,0.0,0.0,0.0,0.0,0.0,0.0,0.0,0.0,0.0,0.0,0.0,0.0,0.0,0.0,0.0,0.0,0.0,0.0,0.0,0.0,0.0,0.0,0.0,0.0,0.0,0.0,0.0,0.0,0.0,0.0,0.0,0.0,0.0,0.0,0.0,0.0,0.0,0.0,0.0,0.0,0.0,0.0,0.0,0.0,0.0,0.0,0.0,0.0,0.0,0.0,0.0,0.0,0.0,0.0,0.0,0.0,0.0,0.0,0.0,0.0
9.020305222832326e-05,8.189281355366928e-05,7.501630714824934e-05,6.99971921717729e-05,6.66660651018732e-05,6.426479691954973e-05,6.146233073006912e-05,5.699675659362201e-05,4.9745396386242886e-05,3.9153866705569844e-05,2.552573833274252e-05,1.0042814524933981e-05,-4.851667651946481e-06,-1.5996126982528927e-05,-1.9875684811590557e-05,-1.3213320254064694e-05,6.244922044701647e-06,3.961133753224753e-05,8.614501586846035e-05,0.00014322013266454406,0.00020651979866259836,0.00027034034496534675,0.00032892972890888165,0.00037689269650446764,0.00041009651476692335,0.0004262529175792613,0.0004249426917924373,0.0004082806767185125,0.000379932054957243,0.0003445612628005652,0.00030700251101353575,0.0002711924874791206,0.00024040584283394523,0.0002163098375482888,0.00019910259285846034,0.0001877521044478102,0.00018012357938509467,0.00017442344336274216,0.00016898615046358862,0.00016277399801371874,0.0001554821971827281,0.0001471678128403651,0.00013886989161131653,0.00013159565778521419,0.00012621220699363984,0.00012321228991764597,0.00012235564677321042,0.0001234873356214143,0.00012595545228870006,0.0001290197224090541,0.0001320398099230949,0.00013445810710943228,0.0001363272528333739,0.00013780986069053926,0.0001392153948663572,0.00014086732992854385,0.0001429321445522643,0.00014551405567473857,0.00014844847304616813,0.0001514394666301581,0.0001541853717531535,0.0,0.0,0.0,0.0,0.0,0.0,0.0,0.0,0.0,0.0,0.0,0.0,0.0,0.0,0.0,0.0,0.0,0.0,0.0,0.0,0.0,0.0,0.0,0.0,0.0,0.0,0.0,0.0,0.0,0.0,0.0,0.0,0.0,0.0,0.0,0.0,0.0,0.0,0.0,0.0,0.0,0.0,0.0,0.0,0.0,0.0,0.0,0.0,0.0,0.0,0.0,0.0,0.0,0.0,0.0,0.0,0.0,0.0,0.0,0.0,0.0,0.0,0.0,0.0,0.0,0.0,0.0,0.0,0.0,0.0,0.0,0.0,0.0,0.0,0.0,0.0,0.0,0.0,0.0,0.0,0.0,0.0,0.0,0.0,0.0,0.0,0.0,0.0,0.0,0.0,0.0,0.0,0.0,0.0,0.0,0.0,0.0,0.0,0.0,0.0,0.0,0.0,0.0,0.0,0.0,0.0,0.0,0.0,0.0,0.0,0.0,0.0,0.0,0.0,0.0,0.0,0.0,0.0,0.0,0.0,0.0,0.0,0.0,0.0,0.0,0.0,0.0,0.0,0.0,0.0,0.0,0.0,0.0,0.0,0.0,0.0,0.0,0.0,0.0,0.0,0.0,0.0,0.0,0.0,0.0,0.0,0.0,0.0,0.0,0.0,0.0,0.0,0.0,0.0,0.0,0.0,0.0,0.0,0.0,0.0,0.0,0.0,0.0,0.0,0.0,0.0,0.0,0.0,0.0,0.0,0.0,0.0,0.0,0.0,0.0,0.0,0.0,0.0,0.0,0.0,0.0,0.0,0.0,0.0,0.0,0.0,0.0,0.0,0.0,0.0,0.0,0.0,0.0,0.0,0.0,0.0,0.0,0.0,0.0,0.0,0.0,0.0,0.0,0.0,0.0,0.0,0.0,0.0,0.0,0.0,0.0,0.0,0.0,0.0,0.0,0.0,0.0,0.0,0.0,0.0,0.0,0.0,0.0,0.0,0.0,0.0,0.0,0.0,0.0,0.0,0.0,0.0,0.0,0.0,0.0,0.0,0.0,0.0,0.0
0.00013445810710943228,0.0001363272528333739,0.00013780986069053926,0.0001392153948663572,0.00014086732992854385,0.0001429321445522643,0.00014551405567473857,0.00014844847304616813,0.0001514394666301581,0.0001541853717531535,0.00015652112757697065,0.00015853925264120065,0.00016060545667451816,0.00016334073231065208,0.0001675034135777631,0.00017385662537547608,0.00018280728359377861,0.0001943696544190908,0.00020805335254742215,0.0002229165164775733,0.00023767891900276956,0.0002512928761419949,0.0002627937719152991,0.0002717347370578514,0.00027832961937738354,0.0002832182404925258,0.0002879799116839373,0.0002937391630347331,0.0003011973190390484,0.0003103978210258221,0.00032051339225001857,0.00033048338584934413,0.0003385561855862245,0.00034298180857406015,0.00034246602267426073,0.0003364355138255238,0.00032548615468062166,0.00031083064103263626,0.0002941588903064543,0.000277224336901197,0.0002613690649706873,0.0002474197105407244,0.0002352188210589946,0.0002238572709980326,0.00021198265112813328,0.00019818900070524306,0.00018154402603622226,0.00016165675131384302,0.00013890150986717287,0.00011436163921039752,8.955950090062172e-05,6.628058807050644e-05,4.593272736412343e-05,2.936687668474773e-05,1.6740627292661736e-05,7.494293139938923e-06,7.452757095098377e-07,-4.749797070208204e-06,-1.0149619411080358e-05,-1.6238091611387932e-05,-2.3309204003472626e-05,0.0,0.0,0.0,0.0,0.0,0.0,0.0,0.0,0.0,0.0,0.0,0.0,0.0,0.0,0.0,0.0,0.0,0.0,0.0,0.0,0.0,0.0,0.0,0.0,0.0,0.0,0.0,0.0,0.0,0.0,0.0,0.0,0.0,0.0,0.0,0.0,0.0,0.0,0.0,0.0,0.0,0.0,0.0,0.0,0.0,0.0,0.0,0.0,0.0,0.0,0.0,0.0,0.0,0.0,0.0,0.0,0.0,0.0,0.0,0.0,0.0,0.0,0.0,0.0,0.0,0.0,0.0,0.0,0.0,0.0,0.0,0.0,0.0,0.0,0.0,0.0,0.0,0.0,0.0,0.0,0.0,0.0,0.0,0.0,0.0,0.0,0.0,0.0,0.0,0.0,0.0,0.0,0.0,0.0,0.0,0.0,0.0,0.0,0.0,0.0,0.0,0.0,0.0,0.0,0.0,0.0,0.0,0.0,0.0,0.0,0.0,0.0,0.0,0.0,0.0,0.0,0.0,0.0,0.0,0.0,0.0,0.0,0.0,0.0,0.0,0.0,0.0,0.0,0.0,0.0,0.0,0.0,0.0,0.0,0.0,0.0,0.0,0.0,0.0,0.0,0.0,0.0,0.0,0.0,0.0,0.0,0.0,0.0,0.0,0.0,0.0,0.0,0.0,0.0,0.0,0.0,0.0,0.0,0.0,0.0,0.0,0.0,0.0,0.0,0.0,0.0,0.0,0.0,0.0,0.0,0.0,0.0,0.0,0.0,0.0,0.0,0.0,0.0,0.0,0.0,0.0,0.0,0.0,0.0,0.0,0.0,0.0,0.0,0.0,0.0,0.0,0.0,0.0,0.0,0.0,0.0,0.0,0.0,0.0,0.0,0.0,0.0,0.0,0.0,0.0,0.0,0.0,0.0,0.0,0.0,0.0,0.0,0.0,0.0,0.0,0.0,0.0,0.0,0.0,0.0,0.0,0.0,0.0,0.0,0.0,0.0,0.0,0.0,0.0,0.0,0.0,0.0,0.0,0.0,0.0,0.0,0.0,0.0,0.0
6.628058807050644e-05,4.593272736412343e-05,2.936687668474773e-05,1.6740627292661736e-05,7.494293139938923e-06,7.452757095098377e-07,-4.749797070208204e-06,-1.0149619411080358e-05,-1.6238091611387932e-05,-2.3309204003472626e-05,-3.091109286501738e-05,-3.8331908954401e-05,-4.4695956065406136e-05,-4.9216810515437594e-05,-5.1480516738723454e-05,-5.131014117924852e-05,-4.915050740177463e-05,-4.578939057647708e-05,-4.2128691142023116e-05,-3.9040014189685484e-05,-3.680047850293087e-05,-3.55476507119053e-05,-3.5098129981472344e-05,-3.504057176860864e-05,-3.501235785556697e-05,-3.4353362177296476e-05,-3.290377455700421e-05,-3.077059125800359e-05,-2.825380944454475e-05,-2.5889037051116463e-05,-2.3748420541004096e-05,-2.2157315619486345e-05,-2.1355915730629384e-05,-2.1467047120480867e-05,-2.2678950563273275e-05,-2.4585352947927286e-05,-2.7103361383434416e-05,-3.013804053940899e-05,-3.353592163667685e-05,-3.723556634486324e-05,-4.0606777396430145e-05,-4.33020768399451e-05,-4.503071254314692e-05,-4.560479615287285e-05,-4.516261331740612e-05,-4.3538557773183254e-05,-4.096911863273073e-05,-3.779996568944318e-05,-3.440940935898652e-05,-3.125677353257031e-05,-2.844297610836574e-05,-2.612294597246942e-05,-2.4374427133432997e-05,-2.3214022565100208e-05,-2.2663146921704074e-05,-2.261442294818384e-05,-2.2967718158965824e-05,-2.359658691175466e-05,-2.4354124378505516e-05,-2.5090170455982667e-05,-2.566391306581671e-05,0.0,0.0,0.0,0.0,0.0,0.0,0.0,0.0,0.0,0.0,0.0,0.0,0.0,0.0,0.0,0.0,0.0,0.0,0.0,0.0,0.0,0.0,0.0,0.0,0.0,0.0,0.0,0.0,0.0,0.0,0.0,0.0,0.0,0.0,0.0,0.0,0.0,0.0,0.0,0.0,0.0,0.0,0.0,0.0,0.0,0.0,0.0,0.0,0.0,0.0,0.0,0.0,0.0,0.0,0.0,0.0,0.0,0.0,0.0,0.0,0.0,0.0,0.0,0.0,0.0,0.0,0.0,0.0,0.0,0.0,0.0,0.0,0.0,0.0,0.0,0.0,0.0,0.0,0.0,0.0,0.0,0.0,0.0,0.0,0.0,0.0,0.0,0.0,0.0,0.0,0.0,0.0,0.0,0.0,0.0,0.0,0.0,0.0,0.0,0.0,0.0,0.0,0.0,0.0,0.0,0.0,0.0,0.0,0.0,0.0,0.0,0.0,0.0,0.0,0.0,0.0,0.0,0.0,0.0,0.0,0.0,0.0,0.0,0.0,0.0,0.0,0.0,0.0,0.0,0.0,0.0,0.0,0.0,0.0,0.0,0.0,0.0,0.0,0.0,0.0,0.0,0.0,0.0,0.0,0.0,0.0,0.0,0.0,0.0,0.0,0.0,0.0,0.0,0.0,0.0,0.0,0.0,0.0,0.0,0.0,0.0,0.0,0.0,0.0,0.0,0.0,0.0,0.0,0.0,0.0,0.0,0.0,0.0,0.0,0.0,0.0,0.0,0.0,0.0,0.0,0.0,0.0,0.0,0.0,0.0,0.0,0.0,0.0,0.0,0.0,0.0,0.0,0.0,0.0,0.0,0.0,0.0,0.0,0.0,0.0,0.0,0.0,0.0,0.0,0.0,0.0,0.0,0.0,0.0,0.0,0.0,0.0,0.0,0.0,0.0,0.0,0.0,0.0,0.0,0.0,0.0,0.0,0.0,0.0,0.0,0.0,0.0,0.0,0.0,0.0,0.0,0.0,0.0,0.0,0.0,0.0,0.0,0.0,0.0
-2.612294597246942e-05,-2.4374427133432997e-05,-2.3214022565100208e-05,-2.2663146921704074e-05,-2.261442294818384e-05,-2.2967718158965824e-05,-2.359658691175466e-05,-2.4354124378505516e-05,-2.5090170455982667e-05,-2.566391306581671e-05,-2.5955603136703702e-05,-2.5898426332418582e-05,-2.5494226191910823e-05,-2.477531208555054e-05,-2.3918140605979917e-05,-2.305492991498722e-05,-2.228943729412068e-05,-2.166748703694998e-05,-2.133837690306302e-05,-2.104986581322733e-05,-2.053031939240064e-05,-1.951024764342184e-05,-1.784074788198914e-05,-1.5973763767728415e-05,-1.382471937924626e-05,-1.1559675375661965e-05,-9.341696032043886e-06,-7.287990066366891e-06,-5.7345949953938964e-06,-4.335794472944601e-06,-2.70558488875878e-06,-3.394782734956325e-07,3.2647677492553557e-06,8.274955238129838e-06,1.5028109274889627e-05,2.3539798617608374e-05,3.3570765606992055e-05,4.4617251522076275e-05,5.578521270912383e-05,6.63014227825907e-05,7.531487524408701e-05,8.206348179016132e-05,8.596973529489718e-05,8.662774828946293e-05,8.415505666211585e-05,7.90533265031202e-05,7.218057200908291e-05,6.461006059629227e-05,5.731876815522308e-05,5.1269716492108645e-05,4.7005286209753246e-05,4.452913003840647e-05,4.325038589768732e-05,4.195442312622039e-05,3.9376325281286455e-05,3.432097658500262e-05,2.609556119246722e-05,1.484219371612075e-05,1.5986693208222193e-06,-1.1250004534206222e-05,-2.0480812275515977e-05,0.0,0.0,0.0,0.0,0.0,0.0,0.0,0.0,0.0,0.0,0.0,0.0,0.0,0.0,0.0,0.0,0.0,0.0,0.0,0.0,0.0,0.0,0.0,0.0,0.0,0.0,0.0,0.0,0.0,0.0,0.0,0.0,0.0,0.0,0.0,0.0,0.0,0.0,0.0,0.0,0.0,0.0,0.0,0.0,0.0,0.0,0.0,0.0,0.0,0.0,0.0,0.0,0.0,0.0,0.0,0.0,0.0,0.0,0.0,0.0,0.0,0.0,0.0,0.0,0.0,0.0,0.0,0.0,0.0,0.0,0.0,0.0,0.0,0.0,0.0,0.0,0.0,0.0,0.0,0.0,0.0,0.0,0.0,0.0,0.0,0.0,0.0,0.0,0.0,0.0,0.0,0.0,0.0,0.0,0.0,0.0,0.0,0.0,0.0,0.0,0.0,0.0,0.0,0.0,0.0,0.0,0.0,0.0,0.0,0.0,0.0,0.0,0.0,0.0,0.0,0.0,0.0,0.0,0.0,0.0,0.0,0.0,0.0,0.0,0.0,0.0,0.0,0.0,0.0,0.0,0.0,0.0,0.0,0.0,0.0,0.0,0.0,0.0,0.0,0.0,0.0,0.0,0.0,0.0,0.0,0.0,0.0,0.0,0.0,0.0,0.0,0.0,0.0,0.0,0.0,0.0,0.0,0.0,0.0,0.0,0.0,0.0,0.0,0.0,0.0,0.0,0.0,0.0,0.0,0.0,0.0,0.0,0.0,0.0,0.0,0.0,0.0,0.0,0.0,0.0,0.0,0.0,0.0,0.0,0.0,0.0,0.0,0.0,0.0,0.0,0.0,0.0,0.0,0.0,0.0,0.0,0.0,0.0,0.0,0.0,0.0,0.0,0.0,0.0,0.0,0.0,0.0,0.0,0.0,0.0,0.0,0.0,0.0,0.0,0.0,0.0,0.0,0.0,0.0,0.0,0.0,0.0,0.0,0.0,0.0,0.0,0.0,0.0,0.0,0.0,0.0,0.0,0.0,0.0,0.0,0.0,0.0,0.0,0.0
4.452913003840647e-05,4.325038589768732e-05,4.195442312622039e-05,3.9376325281286455e-05,3.432097658500262e-05,2.609556119246722e-05,1.484219371612075e-05,1.5986693208222193e-06,-1.1250004534206222e-05,-2.0480812275515977e-05,-2.241768142466012e-05,-1.3565998465445829e-05,8.508483531869987e-06,4.507845982618671e-05,9.545905726241009e-05,0.00015694695470619413,0.00022501405134997576,0.0002936332849652067,0.0003567138765774708,0.00040858746924019544,0.0004449729822526831,0.00046359410116539725,0.0004642022013727723,0.00044917628372205385,0.0004224989143743481,0.00038909424254229033,0.0003539118119837903,0.0003208002881725168,0.00029275406774150793,0.0002710221315271227,0.0002553308218916706,0.00024422952280218343,0.00023530155112624736,0.00022672182937075603,0.00021703239756135559,0.00020561218264095738,0.00019269893933556435,0.0001789068128282147,0.00016574031599919932,0.00015451505463319855,0.00014619649035972236,0.00014116835586894523,0.0001389308260755152,0.00013895450551875527,0.00014025436005041825,0.0001418540477818454,0.00014302944307915301,0.00014330970187903763,0.00014299762339472371,0.00014265092838168145,0.00014303291673825255,0.00014489053028936082,0.00014867622049260113,0.00015462390266304148,0.00016248670881377958,0.00017166245773622357,0.0001813428305381517,0.0001907041116587295,0.00019913366162045565,0.00020633744439962193,0.00021241160460684739,0.0,0.0,0.0,0.0,0.0,0.0,0.0,0.0,0.0,0.0,0.0,0.0,0.0,0.0,0.0,0.0,0.0,0.0,0.0,0.0,0.0,0.0,0.0,0.0,0.0,0.0,0.0,0.0,0.0,0.0,0.0,0.0,0.0,0.0,0.0,0.0,0.0,0.0,0.0,0.0,0.0,0.0,0.0,0.0,0.0,0.0,0.0,0.0,0.0,0.0,0.0,0.0,0.0,0.0,0.0,0.0,0.0,0.0,0.0,0.0,0.0,0.0,0.0,0.0,0.0,0.0,0.0,0.0,0.0,0.0,0.0,0.0,0.0,0.0,0.0,0.0,0.0,0.0,0.0,0.0,0.0,0.0,0.0,0.0,0.0,0.0,0.0,0.0,0.0,0.0,0.0,0.0,0.0,0.0,0.0,0.0,0.0,0.0,0.0,0.0,0.0,0.0,0.0,0.0,0.0,0.0,0.0,0.0,0.0,0.0,0.0,0.0,0.0,0.0,0.0,0.0,0.0,0.0,0.0,0.0,0.0,0.0,0.0,0.0,0.0,0.0,0.0,0.0,0.0,0.0,0.0,0.0,0.0,0.0,0.0,0.0,0.0,0.0,0.0,0.0,0.0,0.0,0.0,0.0,0.0,0.0,0.0,0.0,0.0,0.0,0.0,0.0,0.0,0.0,0.0,0.0,0.0,0.0,0.0,0.0,0.0,0.0,0.0,0.0,0.0,0.0,0.0,0.0,0.0,0.0,0.0,0.0,0.0,0.0,0.0,0.0,0.0,0.0,0.0,0.0,0.0,0.0,0.0,0.0,0.0,0.0,0.0,0.0,0.0,0.0,0.0,0.0,0.0,0.0,0.0,0.0,0.0,0.0,0.0,0.0,0.0,0.0,0.0,0.0,0.0,0.0,0.0,0.0,0.0,0.0,0.0,0.0,0.0,0.0,0.0,0.0,0.0,0.0,0.0,0.0,0.0,0.0,0.0,0.0,0.0,0.0,0.0,0.0,0.0,0.0,0.0,0.0,0.0,0.0,0.0,0.0,0.0,0.0,0.0
