0.08694029305493481,0.12993475576878868,0.16847806603208235,0.20093542409322435,0.22726140704697892,0.24884091824349688,0.26730879536765545,0.2860797293556473,0.30767025883225346,0.3335664816032221,0.363734067306743,0.39595242743489667,0.42754891604883694,0.4545219080244692,0.47271037581022474,0.47862721636998906,0.469927357720949,0.4467784752548641,0.41111042380387747,0.3666136292430368,0.3181130171950525,0.27031446118436403,0.22809426570025987,0.19469079585434043,0.17143739805206248,0.15759881802011594,0.1501264319339944,0.14586012608941698,0.1412986098107801,0.13378053859544126,0.12218609503536752,0.10691151551505253,0.09105441499421812,0.07902583669552163,0.07598085140066296,0.08677337205061911,0.11461076845569865,0.16107986027715032,0.22490728883694922,0.3021686931321846,0.3867824146928704,0.4710512925903014,0.5479819304331425,0.6116273159314073,0.6582459774519506,0.6867914573351217,0.698395384306142,0.6972013409208043,0.6884447384412201,0.6774553283978543,0.668441402628105,0.663184495446349,0.6617953302831636,0.6618858779260669,0.6594969447421004,0.6500913479210882,0.6293721324063127,0.5952382026606254,0.5474438103226411,0.4881519471103632,0.4217090512848682,0.3535795013987867,0.29094117478590664,0.24019438438898894,0.20654665951811949,0.19332675464864818,0.20098458729334787,0.22899008451143016,0.274017863023543,0.33104881325045216,0.3940003082414369,0.4560616195046491,0.5115813776205342,0.5554102420689462,0.5837897242830333,0.5946738618342257,0.5877249801591845,0.5646494624578474,0.5284307746713902,0.48311073941289995,0.4333484206958738,0.38379355622402284,0.3392711544030609,0.30384956267417124,0.28073147345852784,0.2720229795575219,0.27831589865213124,0.29933419997146776,0.3332371586258756,0.37687890170604244,0.4260032102306917,0.4752140574596539,0.5197256071039066,0.554548530444161,0.5755485526929152,0.5799834409038616,0.5663645869216266,0.5363663649430476,0.492600022357522,0.43903301738955325,0.3805569027660607,0.3218974961511512,0.26894175876234877,0.22601027386348865,0.19619169504934347,0.18113036462825985,0.180379410434192,0.1935269487307585,0.21813545270894583,0.250796897016995,0.2875079755620376,0.32365265301989155,0.3556704813353743,0.3798902658493458,0.3933113421738122,0.39388558649581534,0.38056228421273164,0.3540449601172468,0.316127007952198,0.2697996588573597,0.21899143222540718,0.1678133721332931,0.12127725769142547,0.08339389831927957,0.057137526517624646,0.04409727795499905,0.04378471714904242,0.055512013250573686,0.07662966856762156,0.10367257806329541,0.13293749613406888,0.16046333711380018,0.18429331773308105,0.20279838969203662,0.2152721624878751,0.22177771431313872,0.22230640907933685,0.21841673930000163,0.21130509668167144,0.20217491032001553,0.19216287685284808,0.18177627215715128,0.17267990038952646,0.1658757141335121,0.16225523330381852,0.16254803939255746,0.1667499049336578,0.17569407956395178,0.1890497302823054,0.20594231119713344,0.22501481958171615,0.2442973222631699,0.262201800302952,0.2766298794513113,0.28558910015589833,0.28748159977087484,0.28138610112457146,0.2672919983785849,0.24596656766090655,0.0,0.0,0.0,0.0,0.0,0.0,0.0,0.0,0.0,0.0,0.0,0.0,0.0,0.0,0.0,0.0,0.0,0.0,0.0,0.0,0.0,0.0,0.0,0.0,0.0,0.0,0.0,0.0,0.0,0.0,0.0,0.0,0.0,0.0,0.0,0.0,0.0,0.0,0.0,0.0,0.0,0.0,0.0,0.0,0.0,0.0,0.0,0.0,0.0,0.0,0.0,0.0,0.0,0.0,0.0,0.0,0.0,0.0,0.0,0.0,0.0,0.0,0.0,0.0,0.0,0.0,0.0,0.0,0.0,0.0,0.0,0.0,0.0,0.0,0.0,0.0,0.0,0.0,0.0,0.0,0.0,0.0,0.0,0.0,0.0,0.0,0.0,0.0,0.0,0.0,0.0,0.0,0.0,0.0,0.0,0.0,0.0,0.0,0.0,0.0,0.0,0.0,0.0,0.0,0.0,0.0,0.0,0.0,0.0,0.0,0.0,0.0,0.0,0.0,0.0,0.0,0.0,0.0,0.0,0.0,0.0,0.0,0.0,0.0,0.0,0.0,0.0,0.0,0.0,0.0,0.0,0.0,0.0,0.0,0.0,0.0,0.0,0.0,0.0,0.0,0.0
0.663184495446349,0.6617953302831636,0.6618858779260669,0.6594969447421004,0.6500913479210882,0.6293721324063127,0.5952382026606254,0.5474438103226411,0.4881519471103632,0.4217090512848682,0.3535795013987867,0.29094117478590664,0.24019438438898894,0.20654665951811949,0.19332675464864818,0.20098458729334787,0.22899008451143016,0.274017863023543,0.33104881325045216,0.3940003082414369,0.4560616195046491,0.5115813776205342,0.5554102420689462,0.5837897242830333,0.5946738618342257,0.5877249801591845,0.5646494624578474,0.5284307746713902,0.48311073941289995,0.4333484206958738,0.38379355622402284,0.3392711544030609,0.30384956267417124,0.28073147345852784,0.2720229795575219,0.27831589865213124,0.29933419997146776,0.3332371586258756,0.37687890170604244,0.4260032102306917,0.4752140574596539,0.5197256071039066,0.554548530444161,0.5755485526929152,0.5799834409038616,0.5663645869216266,0.5363663649430476,0.492600022357522,0.43903301738955325,0.3805569027660607,0.3218974961511512,0.26894175876234877,0.22601027386348865,0.19619169504934347,0.18113036462825985,0.180379410434192,0.1935269487307585,0.21813545270894583,0.250796897016995,0.2875079755620376,0.32365265301989155,0.3556704813353743,0.3798902658493458,0.3933113421738122,0.39388558649581534,0.38056228421273164,0.3540449601172468,0.316127007952198,0.2697996588573597,0.21899143222540718,0.1678133721332931,0.12127725769142547,0.08339389831927957,0.057137526517624646,0.04409727795499905,0.04378471714904242,0.055512013250573686,0.07662966856762156,0.10367257806329541,0.13293749613406888,0.16046333711380018,0.18429331773308105,0.20279838969203662,0.2152721624878751,0.22177771431313872,0.22230640907933685,0.21841673930000163,0.21130509668167144,0.20217491032001553,0.19216287685284808,0.18177627215715128,0.17267990038952646,0.1658757141335121,0.16225523330381852,0.16254803939255746,0.1667499049336578,0.17569407956395178,0.1890497302823054,0.20594231119713344,0.22501481958171615,0.2442973222631699,0.262201800302952,0.2766298794513113,0.28558910015589833,0.28748159977087484,0.28138610112457146,0.2672919983785849,0.24596656766090655,0.2190563528614805,0.18896853677759173,0.15840014142821654,0.13078993095530284,0.10898396998214886,0.09514869385578392,0.09045547378430864,0.09443058465276022,0.10652269763326412,0.12468620933501584,0.14628254537403151,0.16859173679702075,0.18882507445316607,0.2062006399795404,0.2207153176317404,0.23354429702614404,0.2467279998097328,0.2620746517126261,0.2822222066998071,0.3086756561207117,0.3416208603795675,0.37961541832370427,0.41917444460721226,0.4565212752379639,0.48710284351303557,0.5067546226510177,0.5125028368376757,0.5028532792027026,0.4790754734508277,0.4440406741585631,0.40199924971024703,0.3577510213052193,0.3153976695033437,0.2784192170751233,0.24814226162347586,0.22383793206364297,0.20299920577276287,0.1817581331628747,0.15672748475689446,0.12517374412315366,0.08611590181370578,0.04079431197284013,-0.007575071615309167,-0.053569385004432035,-0.09129936352972777,-0.11525983962627832,-0.12141058182708263,-0.10817104580341928,-0.07617972939075436,-0.028948309374939574,0.028085881384605448,0.0,0.0,0.0,0.0,0.0,0.0,0.0,0.0,0.0,0.0,0.0,0.0,0.0,0.0,0.0,0.0,0.0,0.0,0.0,0.0,0.0,0.0,0.0,0.0,0.0,0.0,0.0,0.0,0.0,0.0,0.0,0.0,0.0,0.0,0.0,0.0,0.0,0.0,0.0,0.0,0.0,0.0,0.0,0.0,0.0,0.0,0.0,0.0,0.0,0.0,0.0,0.0,0.0,0.0,0.0,0.0,0.0,0.0,0.0,0.0,0.0,0.0,0.0,0.0,0.0,0.0,0.0,0.0,0.0,0.0,0.0,0.0,0.0,0.0,0.0,0.0,0.0,0.0,0.0,0.0,0.0,0.0,0.0,0.0,0.0,0.0,0.0,0.0,0.0,0.0,0.0,0.0,0.0,0.0,0.0,0.0,0.0,0.0,0.0,0.0,0.0,0.0,0.0,0.0,0.0,0.0,0.0,0.0,0.0,0.0,0.0,0.0,0.0,0.0,0.0,0.0,0.0,0.0,0.0,0.0,0.0,0.0,0.0,0.0,0.0,0.0,0.0,0.0,0.0,0.0,0.0,0.0,0.0,0.0,0.0,0.0,0.0,0.0,0.0,0.0,0.0
0.37653910042071675,0.4126937892580036,0.45486047946904157,0.49965921581917244,0.5429298749558309,0.5792236903649323,0.6032804358728966,0.611068383252806,0.6000482049284239,0.5712389056706476,0.5275997201538537,0.47394401040200873,0.4160683555101355,0.3592223339469584,0.3088963718665957,0.26843687940006805,0.23928420471589404,0.22106832776746502,0.2115035916780832,0.20874786933371087,0.21014007641859972,0.2133496805482019,0.21669954411795758,0.21891554413445888,0.21996791223560516,0.21957061106588743,0.21727780717782927,0.21233076046845012,0.20362110676879128,0.19023615758837145,0.17138112858628693,0.14700026972099084,0.11816777649622867,0.08724004448070206,0.05790162012861445,0.03461119564184822,0.021987844037562286,0.02400479252400722,0.04318956381323695,0.07998006305931833,0.13259283946575307,0.19705010354651353,0.2676823576619778,0.33787834273406364,0.4014310943395622,0.45322012760571495,0.49011238245555405,0.5113599227999485,0.5183381925030891,0.5146706309564478,0.504548421896362,0.4920790765340869,0.48047079967729794,0.4711771346239543,0.46492189957483626,0.4605623529847912,0.4561349677526009,0.4495816765546474,0.4389323493653607,0.4243991354611947,0.4065258658802226,0.3866384936495305,0.36641940458495886,0.34707417460093687,0.32985030416418615,0.31448675515958724,0.29964713177179364,0.28325713261527025,0.2629662251795289,0.23716141285406914,0.20498805555627353,0.16690221763411983,0.12474654940016432,0.08128259079292634,0.0404560066000608,0.005912702464395083,-0.01940117390196441,-0.03376403381494163,-0.03731774289964589,-0.030886493124844205,-0.01679192784321555,0.0019702895597787933,0.022286203722977408,0.04117887058703586,0.05691583565571573,0.06843147574562401,0.07546412865264679,0.07833644126089644,0.07755625238375022,0.07394794359401288,0.06820012010297015,0.06091874198424064,0.05268979127883137,0.04391757746404894,0.035837309279411506,0.029542371267462317,0.0262312265975684,0.027043141296766292,0.03241498238290543,0.043327094900947404,0.05947433384509718,0.07980639324763515,0.10264344851119,0.12541186917823083,0.14645301410680128,0.1635356331731161,0.17465313495592372,0.1782437557256137,0.17286996836811688,0.15903997147415147,0.13752300743787813,0.10994467467149836,0.07873382892489202,0.04660219244460771,0.017450067964988398,-0.005317919007719595,-0.018762864760208973,-0.020776097875829715,-0.010568940605229563,0.011856495830565555,0.0448413468447168,0.08552835494173434,0.13020090787098942,0.1748191974007881,0.2153086642745997,0.24807364331763246,0.2704771886661689,0.28117791361780853,0.28064648563392164,0.26995824274247165,0.2513962625973095,0.22783064538368172,0.20230220174496674,0.1775359110747019,0.15597502732111157,0.13930729215887913,0.12842994260116117,0.12342648987212496,0.12304735210906283,0.12665143010355745,0.13298040889031312,0.14072990563090326,0.1487066914773737,0.15570569376822244,0.1614291428593629,0.16591926504930135,0.16975821697535184,0.17398689308262244,0.17997730138008655,0.18894323342516528,0.20170601171509345,0.2183572777853522,0.23805884913139327,0.2589198095399103,0.27853806838916756,0.29400847974404093,0.3025651643472647,0.3021308051801641,0.2914990704164557,0.0,0.0,0.0,0.0,0.0,0.0,0.0,0.0,0.0,0.0,0.0,0.0,0.0,0.0,0.0,0.0,0.0,0.0,0.0,0.0,0.0,0.0,0.0,0.0,0.0,0.0,0.0,0.0,0.0,0.0,0.0,0.0,0.0,0.0,0.0,0.0,0.0,0.0,0.0,0.0,0.0,0.0,0.0,0.0,0.0,0.0,0.0,0.0,0.0,0.0,0.0,0.0,0.0,0.0,0.0,0.0,0.0,0.0,0.0,0.0,0.0,0.0,0.0,0.0,0.0,0.0,0.0,0.0,0.0,0.0,0.0,0.0,0.0,0.0,0.0,0.0,0.0,0.0,0.0,0.0,0.0,0.0,0.0,0.0,0.0,0.0,0.0,0.0,0.0,0.0,0.0,0.0,0.0,0.0,0.0,0.0,0.0,0.0,0.0,0.0,0.0,0.0,0.0,0.0,0.0,0.0,0.0,0.0,0.0,0.0,0.0,0.0,0.0,0.0,0.0,0.0,0.0,0.0,0.0,0.0,0.0,0.0,0.0,0.0,0.0,0.0,0.0,0.0,0.0,0.0,0.0,0.0,0.0,0.0,0.0,0.0,0.0,0.0,0.0,0.0,0.0
0.4920790765340869,0.48047079967729794,0.4711771346239543,0.46492189957483626,0.4605623529847912,0.4561349677526009,0.4495816765546474,0.4389323493653607,0.4243991354611947,0.4065258658802226,0.3866384936495305,0.36641940458495886,0.34707417460093687,0.32985030416418615,0.31448675515958724,0.29964713177179364,0.28325713261527025,0.2629662251795289,0.23716141285406914,0.20498805555627353,0.16690221763411983,0.12474654940016432,0.08128259079292634,0.0404560066000608,0.005912702464395083,-0.01940117390196441,-0.03376403381494163,-0.03731774289964589,-0.030886493124844205,-0.01679192784321555,0.0019702895597787933,0.022286203722977408,0.04117887058703586,0.05691583565571573,0.06843147574562401,0.07546412865264679,0.07833644126089644,0.07755625238375022,0.07394794359401288,0.06820012010297015,0.06091874198424064,0.05268979127883137,0.04391757746404894,0.035837309279411506,0.029542371267462317,0.0262312265975684,0.027043141296766292,0.03241498238290543,0.043327094900947404,0.05947433384509718,0.07980639324763515,0.10264344851119,0.12541186917823083,0.14645301410680128,0.1635356331731161,0.17465313495592372,0.1782437557256137,0.17286996836811688,0.15903997147415147,0.13752300743787813,0.10994467467149836,0.07873382892489202,0.04660219244460771,0.017450067964988398,-0.005317919007719595,-0.018762864760208973,-0.020776097875829715,-0.010568940605229563,0.011856495830565555,0.0448413468447168,0.08552835494173434,0.13020090787098942,0.1748191974007881,0.2153086642745997,0.24807364331763246,0.2704771886661689,0.28117791361780853,0.28064648563392164,0.26995824274247165,0.2513962625973095,0.22783064538368172,0.20230220174496674,0.1775359110747019,0.15597502732111157,0.13930729215887913,0.12842994260116117,0.12342648987212496,0.12304735210906283,0.12665143010355745,0.13298040889031312,0.14072990563090326,0.1487066914773737,0.15570569376822244,0.1614291428593629,0.16591926504930135,0.16975821697535184,0.17398689308262244,0.17997730138008655,0.18894323342516528,0.20170601171509345,0.2183572777853522,0.23805884913139327,0.2589198095399103,0.27853806838916756,0.29400847974404093,0.3025651643472647,0.3021308051801641,0.2914990704164557,0.2714787428229025,0.2439892142314001,0.21198359478873952,0.178840660974238,0.14742828771328326,0.11990777403617894,0.09666712635709843,0.07624709750705065,0.055550516768311915,0.030410565302821442,-0.0032089772510130402,-0.04821807482333184,-0.10532822186972454,-0.17234194937332253,-0.2443064621171221,-0.312836294952946,-0.36810801866364273,-0.4000833496818541,-0.400234415514957,-0.36378689336792025,-0.2889430628235236,-0.17923245205053193,-0.04279452497779055,0.10852154749644716,0.2601431876225563,0.3980913947305574,0.5094582944318221,0.5844028228869462,0.6172775105078513,0.6068151479237676,0.5570757390959669,0.47581378562357557,0.37357846464006667,0.2622615836654003,0.15319676863756534,0.05699993158939064,-0.018560752452182354,-0.06889310409857524,-0.09275434317705063,-0.09240266958772653,-0.07158596228874796,-0.035879887614465936,0.008590287134883001,0.05596601646158654,0.10092648751861663,0.14010870433951103,0.1711114602946255,0.19272076402190172,0.20468637610022364,0.20723903809683897,0.20168301990512819,0.0,0.0,0.0,0.0,0.0,0.0,0.0,0.0,0.0,0.0,0.0,0.0,0.0,0.0,0.0,0.0,0.0,0.0,0.0,0.0,0.0,0.0,0.0,0.0,0.0,0.0,0.0,0.0,0.0,0.0,0.0,0.0,0.0,0.0,0.0,0.0,0.0,0.0,0.0,0.0,0.0,0.0,0.0,0.0,0.0,0.0,0.0,0.0,0.0,0.0,0.0,0.0,0.0,0.0,0.0,0.0,0.0,0.0,0.0,0.0,0.0,0.0,0.0,0.0,0.0,0.0,0.0,0.0,0.0,0.0,0.0,0.0,0.0,0.0,0.0,0.0,0.0,0.0,0.0,0.0,0.0,0.0,0.0,0.0,0.0,0.0,0.0,0.0,0.0,0.0,0.0,0.0,0.0,0.0,0.0,0.0,0.0,0.0,0.0,0.0,0.0,0.0,0.0,0.0,0.0,0.0,0.0,0.0,0.0,0.0,0.0,0.0,0.0,0.0,0.0,0.0,0.0,0.0,0.0,0.0,0.0,0.0,0.0,0.0,0.0,0.0,0.0,0.0,0.0,0.0,0.0,0.0,0.0,0.0,0.0,0.0,0.0,0.0,0.0,0.0,0.0
-0.312836294952946,-0.36810801866364273,-0.4000833496818541,-0.400234415514957,-0.36378689336792025,-0.2889430628235236,-0.17923245205053193,-0.04279452497779055,0.10852154749644716,0.2601431876225563,0.3980913947305574,0.5094582944318221,0.5844028228869462,0.6172775105078513,0.6068151479237676,0.5570757390959669,0.47581378562357557,0.37357846464006667,0.2622615836654003,0.15319676863756534,0.05699993158939064,-0.018560752452182354,-0.06889310409857524,-0.09275434317705063,-0.09240266958772653,-0.07158596228874796,-0.035879887614465936,0.008590287134883001,0.05596601646158654,0.10092648751861663,0.14010870433951103,0.1711114602946255,0.19272076402190172,0.20468637610022364,0.20723903809683897,0.20168301990512819,0.1893299334160059,0.17180831333057422,0.15112996255903174,0.12956963937081906,0.11026954544846106,0.0964344739328168,0.09126812070305618,0.09757354901783978,0.11714718966704134,0.15075910234773124,0.19743819489649483,0.25446981874567826,0.3175617788346465,0.38123592962402325,0.4396613203066478,0.4875681513952442,0.5209369808436679,0.5375500086514532,0.5372426991398133,0.5216453006602402,0.49433430605194284,0.45987443601217326,0.422989952427526,0.387634441624225,0.3571290583672,0.33338619525204477,0.3171822859928699,0.30842989620359884,0.3061116394293442,0.3099688298228765,0.3188850416095106,0.3315499340496733,0.34644864432232475,0.36153813058038664,0.3751296615758942,0.3849700056806396,0.3887576325732298,0.38446739244105066,0.370581074931807,0.3468280812751911,0.31418401691314785,0.27485855489484634,0.23201211368821795,0.18910919653639774,0.14991448262917317,0.11746616280824052,0.09377246342517181,0.07955683493538522,0.07402460491623833,0.07577971916035799,0.08245481573725116,0.09146212590854433,0.10050373544019857,0.10774997698386335,0.1128092035819348,0.11600532119017053,0.11840152458358874,0.12145063594501189,0.12633418735078272,0.13435976440161723,0.1459912197002852,0.16091919989073666,0.17808559604228716,0.19544868533135876,0.21155980749281753,0.2245093679945033,0.23263022524810212,0.23472055613956241,0.22963716264672615,0.2182159341809385,0.20126465180439693,0.18016210088745005,0.15676423897821531,0.13270391208877272,0.11093695789735264,0.09365871278123059,0.08260074885900304,0.07880792181686821,0.08197448441784556,0.09211189769685536,0.10802035631362719,0.12795565586772478,0.14985388647495895,0.17121020088697728,0.19047677886280776,0.20595316743459058,0.2163493361803449,0.22089985113304964,0.21924745087612077,0.21213438376072644,0.2004113336007419,0.18532558329545532,0.16845033160075704,0.1512647077935809,0.13596634444327305,0.12424572813474369,0.11737165089155635,0.11600081206846447,0.11964877679292665,0.12799143119973055,0.1399288214549175,0.15406350059105126,0.16892147175748884,0.18282571183154955,0.19517177477091782,0.2056130348089108,0.21431708307808015,0.2218421314465132,0.22865106586601927,0.23575237228417717,0.24368862737258068,0.2526259227712791,0.26231770150249123,0.2718670919625059,0.28096325858406457,0.289141173707316,0.29629424359053774,0.3027932715584693,0.30908645937819196,0.3167192732038785,0.32684180066238905,0.3401706601699911,0.35661015150791203,0.0,0.0,0.0,0.0,0.0,0.0,0.0,0.0,0.0,0.0,0.0,0.0,0.0,0.0,0.0,0.0,0.0,0.0,0.0,0.0,0.0,0.0,0.0,0.0,0.0,0.0,0.0,0.0,0.0,0.0,0.0,0.0,0.0,0.0,0.0,0.0,0.0,0.0,0.0,0.0,0.0,0.0,0.0,0.0,0.0,0.0,0.0,0.0,0.0,0.0,0.0,0.0,0.0,0.0,0.0,0.0,0.0,0.0,0.0,0.0,0.0,0.0,0.0,0.0,0.0,0.0,0.0,0.0,0.0,0.0,0.0,0.0,0.0,0.0,0.0,0.0,0.0,0.0,0.0,0.0,0.0,0.0,0.0,0.0,0.0,0.0,0.0,0.0,0.0,0.0,0.0,0.0,0.0,0.0,0.0,0.0,0.0,0.0,0.0,0.0,0.0,0.0,0.0,0.0,0.0,0.0,0.0,0.0,0.0,0.0,0.0,0.0,0.0,0.0,0.0,0.0,0.0,0.0,0.0,0.0,0.0,0.0,0.0,0.0,0.0,0.0,0.0,0.0,0.0,0.0,0.0,0.0,0.0,0.0,0.0,0.0,0.0,0.0,0.0,0.0,0.0
0.7365727610148218,0.6902284789868113,0.6167984724416091,0.5246338248217343,0.4239384098584512,0.3249120063451306,0.23727295703108264,0.1680686630775901,0.12120801933148617,0.09726471740161487,0.09351665374730121,0.1057689795440693,0.1283112623624543,0.15538876078133357,0.18219678413062726,0.20544020179223407,0.22411358992155517,0.23898944640522726,0.25231551348102216,0.2671288508596397,0.28647257611645516,0.3125034380855929,0.3461222962407515,0.3865689014476284,0.43146216296236495,0.4770740360699904,0.519379410651491,0.5547159125196666,0.5805216960134653,0.5957954750650902,0.600910189971226,0.5981726506025277,0.5906936745962637,0.5817145102843876,0.5738115494247191,0.5681133072261497,0.5646758410085847,0.5622002440827609,0.5586355404208931,0.551827623784348,0.5400407422531746,0.5227730834366926,0.5005443505682536,0.4748551861443831,0.44778008906291844,0.4211998667187193,0.3971775481085265,0.37649423908298757,0.35898305126772423,0.3437325543414889,0.3290955710909261,0.31450194180050894,0.2989429545985055,0.28193932501777846,0.263682821497396,0.24481972438522487,0.22675433383420288,0.2103696542627461,0.1960684859036554,0.18363308865330313,0.17235447619378735,0.1610091748407424,0.14826944001693176,0.1331393881028967,0.11536775242949777,0.09561437289019833,0.07595725545129878,0.05917673676902784,0.04851785535405811,0.047102416205692416,0.05694789160103518,0.07949408298422611,0.11410178559977201,0.15832855539685087,0.20817116904065275,0.2582341063622349,0.303675549648786,0.33957509715070816,0.36213639053249497,0.36923992187561305,0.36032935814195344,0.33771250550554016,0.3045081521237113,0.26470316581592834,0.22254569576780003,0.18141800202741415,0.14507455381297316,0.11531247235215167,0.09252150919964078,0.07585146965998696,0.06293699770706722,0.0525646634979927,0.042935598683780496,0.032797490228944355,0.021668264496044892,0.009352031157694235,-0.0028156658745573967,-0.01402414779156538,-0.02385131665326743,-0.032514940667897174,-0.04114824332120944,-0.050715914469671615,-0.06263104314825996,-0.07785894008938701,-0.09640802246488718,-0.11720429701875497,-0.13745460623534336,-0.15376469175787133,-0.16246098043423657,-0.1603011042618772,-0.1452740531620107,-0.11668889778463559,-0.07590546093590782,-0.026009892360271993,0.028648845099314552,0.08261555994878417,0.1316323780800351,0.17193768133981394,0.20099698045321607,0.21759879446050628,0.22083401511159864,0.21261613703083926,0.19529614128424683,0.17186609214108275,0.1455957120161919,0.1190583984058659,0.09595510711620825,0.07917015587569866,0.07112136286467713,0.07359262957187754,0.08714643274718052,0.11232564774560752,0.14807853072728452,0.19218254424988115,0.2413274238198415,0.2909598930930617,0.3368357964668329,0.3743457122238008,0.3994151215121768,0.40906221806780546,0.40153991826123864,0.37765654722309466,0.33995363308417303,0.29264367590983803,0.2410004494440466,0.190221070554791,0.14546260723672388,0.11030063958427828,0.08633091135157521,0.07293868082028769,0.06721824118855371,0.06546193590036092,0.06351258251661275,0.05797041136541261,0.04715552788094566,0.031492749000926704,0.014559666571972876,0.0022549306308138504,0.0019981807925272214,0.0,0.0,0.0,0.0,0.0,0.0,0.0,0.0,0.0,0.0,0.0,0.0,0.0,0.0,0.0,0.0,0.0,0.0,0.0,0.0,0.0,0.0,0.0,0.0,0.0,0.0,0.0,0.0,0.0,0.0,0.0,0.0,0.0,0.0,0.0,0.0,0.0,0.0,0.0,0.0,0.0,0.0,0.0,0.0,0.0,0.0,0.0,0.0,0.0,0.0,0.0,0.0,0.0,0.0,0.0,0.0,0.0,0.0,0.0,0.0,0.0,0.0,0.0,0.0,0.0,0.0,0.0,0.0,0.0,0.0,0.0,0.0,0.0,0.0,0.0,0.0,0.0,0.0,0.0,0.0,0.0,0.0,0.0,0.0,0.0,0.0,0.0,0.0,0.0,0.0,0.0,0.0,0.0,0.0,0.0,0.0,0.0,0.0,0.0,0.0,0.0,0.0,0.0,0.0,0.0,0.0,0.0,0.0,0.0,0.0,0.0,0.0,0.0,0.0,0.0,0.0,0.0,0.0,0.0,0.0,0.0,0.0,0.0,0.0,0.0,0.0,0.0,0.0,0.0,0.0,0.0,0.0,0.0,0.0,0.0,0.0,0.0,0.0,0.0,0.0,0.0
0.9695381880200196,1.0006505165814363,0.9872583514283763,0.9332583707179206,0.8466987890665372,0.7388470622776508,0.6223853407139025,0.5091557745809334,0.4096181414328311,0.33071179304386067,0.27565688837977037,0.2441201648463687,0.2327322532302253,0.23670613626048043,0.25044377486748554,0.2686825612395542,0.2872061343911361,0.302904346260945,0.3148012645748477,0.32279681846336267,0.3275994922346569,0.3302921039359036,0.3315254033197308,0.33266371181746646,0.3341359911757613,0.3359642353249358,0.3379166563210558,0.33940578705621743,0.3406569942211739,0.34180639357053755,0.34324383738859765,0.34554120870620797,0.3491199447088107,0.3546180683254828,0.362206250117106,0.371620093974432,0.3821557178086448,0.3925813642077877,0.40201630431845603,0.40966146135877646,0.41517324286297425,0.4187702269110816,0.4209414151771696,0.42298458119618093,0.42610781670548514,0.43119752704601116,0.4384663290272969,0.446784331994114,0.4552412413475723,0.4616119624813668,0.46335846068316516,0.4581624311435121,0.44376603162831496,0.42074346826564574,0.38975397551943264,0.35256652103608027,0.31190848937459215,0.27057497590290147,0.2327824774025873,0.2015334262412708,0.17887409809198912,0.16565454760567214,0.16109353162733103,0.16426236363898075,0.17314517034718804,0.185408379190482,0.1987712590919912,0.21096128515670437,0.22097899957240133,0.2279868269889392,0.23162184651363377,0.2318879705783103,0.22877630450859268,0.2230510463511265,0.21515484410008448,0.2055792452300615,0.19493365540580174,0.18372003056598676,0.17333801347543124,0.16489770337296453,0.15947868785310737,0.15797934023329313,0.16063118739492777,0.16795682068234444,0.17948592195281968,0.19418789747714144,0.21060846535292502,0.22670478561355015,0.24130373614697587,0.25294274963313224,0.26048508307548707,0.26323759047255685,0.26059053868582005,0.2533814933739953,0.24232562271269303,0.22844270887594192,0.21299610003060293,0.19715671438284751,0.18287910073509084,0.17159004691405638,0.1645421406029332,0.16275460958864899,0.16680583587325634,0.17725890604573505,0.19361919063542885,0.2146585062934157,0.23849635880689893,0.26264953183092293,0.28475767572051075,0.3021678823854686,0.31254834578924906,0.31423810802514884,0.30639663895857205,0.2895586329096188,0.2651015237375003,0.2352419291772934,0.2027464216219618,0.17051054632879356,0.14144628473973578,0.11774288835539369,0.10082045595595253,0.0912547352187747,0.08880758581981978,0.09263959823786003,0.10116029189415257,0.11243670468973667,0.12450450220531577,0.13545350931039996,0.14440176569826668,0.15087365244020523,0.15506802768756736,0.15775426919185684,0.1596227689778688,0.1623551164853494,0.16710206851570103,0.1745075000004336,0.18444778741703877,0.19555698078296577,0.20634219748136284,0.2143374411755337,0.21679197770114456,0.21114130564222067,0.19526374808106664,0.16872468612464656,0.1321468709821225,0.08758628860297848,0.038369755688822296,-0.011544708315110046,-0.05736233741556522,-0.09495187775368889,-0.1211904771861112,-0.1344017942645761,-0.13477650644333525,-0.12350860531967461,-0.10321402899191794,-0.0771989870832736,-0.04892792418513523,-0.02185352290946741,0.001800521039483355,0.0,0.0,0.0,0.0,0.0,0.0,0.0,0.0,0.0,0.0,0.0,0.0,0.0,0.0,0.0,0.0,0.0,0.0,0.0,0.0,0.0,0.0,0.0,0.0,0.0,0.0,0.0,0.0,0.0,0.0,0.0,0.0,0.0,0.0,0.0,0.0,0.0,0.0,0.0,0.0,0.0,0.0,0.0,0.0,0.0,0.0,0.0,0.0,0.0,0.0,0.0,0.0,0.0,0.0,0.0,0.0,0.0,0.0,0.0,0.0,0.0,0.0,0.0,0.0,0.0,0.0,0.0,0.0,0.0,0.0,0.0,0.0,0.0,0.0,0.0,0.0,0.0,0.0,0.0,0.0,0.0,0.0,0.0,0.0,0.0,0.0,0.0,0.0,0.0,0.0,0.0,0.0,0.0,0.0,0.0,0.0,0.0,0.0,0.0,0.0,0.0,0.0,0.0,0.0,0.0,0.0,0.0,0.0,0.0,0.0,0.0,0.0,0.0,0.0,0.0,0.0,0.0,0.0,0.0,0.0,0.0,0.0,0.0,0.0,0.0,0.0,0.0,0.0,0.0,0.0,0.0,0.0,0.0,0.0,0.0,0.0,0.0,0.0,0.0,0.0,0.0
0.39644961030896947,0.3956941785203759,0.3765561301940765,0.3430807044501991,0.30054100887856094,0.25460989243229637,0.210132767792056,0.17172697558515004,0.14218067691609432,0.1226469408262738,0.1127701745556233,0.1107700099967056,0.11478389064436763,0.12247502425959772,0.13173886520365582,0.14098651312745433,0.14916675536970378,0.15597067700672754,0.16142535866361515,0.16575636847261063,0.16920285169928537,0.17199624199186414,0.17398387629043824,0.1750862206470462,0.17525333772153318,0.17457734917274084,0.17340845751752956,0.1723502861092062,0.17234300631373128,0.17450955297782766,0.17995184664619626,0.1894295918305906,0.2033387338294329,0.2213412508031552,0.24240133361683147,0.2649318568291684,0.287112561618273,0.30726091155520563,0.32434596365159923,0.3382609516727408,0.3499118670121406,0.36111718884293215,0.37384953668293774,0.3900033648599486,0.4106127289350784,0.4353496716962527,0.4622235778325418,0.488154153841257,0.5091049175736144,0.521038917801736,0.5207874763803647,0.5064593404160332,0.4788865355827582,0.4403430984439544,0.3945443205361122,0.3459398604395384,0.2986569219024746,0.25642874734054566,0.2211962280485471,0.1931840338366858,0.17109224449871208,0.1524893784047766,0.13488849077099793,0.11603019447821836,0.09457927155144766,0.07042894422406099,0.04461911261055639,0.019324041136300964,-0.003009180928086293,-0.020082583888710745,-0.030234356050590112,-0.032801625320179544,-0.028055558611064266,-0.01740526583782774,-0.0029525206045701385,0.012939900001104366,0.028000376059595197,0.040661318836195455,0.04980959163376449,0.054952283098338134,0.05611415605279884,0.0535567388246666,0.04801448906373653,0.04007492681236364,0.030336644116667713,0.019470277958978297,0.008020827735532216,-0.002594376060981983,-0.01113644209818433,-0.016351138793108184,-0.017173600134842242,-0.013411769163900397,-0.004438384890878466,0.009203390469027318,0.026321493846540037,0.04524707169607107,0.0636815324066331,0.08036890285897703,0.09382347124605898,0.10304800766746006,0.10766774352698436,0.10758880067078909,0.10418547655861776,0.09856881906602928,0.09191909513801667,0.08529951128806243,0.07928564719980483,0.07453585086914055,0.07079707542149506,0.067294815802732,0.06293127904914052,0.056539619736448866,0.04733141065035564,0.034861291138088654,0.01933730896710844,0.001683976354236456,-0.016964404218006813,-0.03427895786960098,-0.048144901281152494,-0.05685925349647236,-0.05956332634066759,-0.05728561747766039,-0.05058166330378648,-0.040998422351535786,-0.030270538227524353,-0.01992975149031827,-0.011421644080878623,-0.004498681402631706,0.0017813258767805094,0.00914215704441871,0.019703823360031056,0.03535262719378602,0.05764324549689126,0.08701322488635928,0.12265199674641325,0.16248475132020737,0.20323343670353405,0.24130752938277802,0.27297172977882034,0.29501754354205734,0.30526567928038373,0.30273854416810786,0.28834013491135685,0.26436435293853583,0.2342124808759281,0.2018045492656001,0.17066663047094968,0.143922797203805,0.12321224782724804,0.10854915389275949,0.09834341925081641,0.08950863275899953,0.07892051919942879,0.06354906152521603,0.04155114270732624,0.013008219506537135,-0.019961245278137595,-0.05220402332418023,-0.07685612577019534,0.0,0.0,0.0,0.0,0.0,0.0,0.0,0.0,0.0,0.0,0.0,0.0,0.0,0.0,0.0,0.0,0.0,0.0,0.0,0.0,0.0,0.0,0.0,0.0,0.0,0.0,0.0,0.0,0.0,0.0,0.0,0.0,0.0,0.0,0.0,0.0,0.0,0.0,0.0,0.0,0.0,0.0,0.0,0.0,0.0,0.0,0.0,0.0,0.0,0.0,0.0,0.0,0.0,0.0,0.0,0.0,0.0,0.0,0.0,0.0,0.0,0.0,0.0,0.0,0.0,0.0,0.0,0.0,0.0,0.0,0.0,0.0,0.0,0.0,0.0,0.0,0.0,0.0,0.0,0.0,0.0,0.0,0.0,0.0,0.0,0.0,0.0,0.0,0.0,0.0,0.0,0.0,0.0,0.0,0.0,0.0,0.0,0.0,0.0,0.0,0.0,0.0,0.0,0.0,0.0,0.0,0.0,0.0,0.0,0.0,0.0,0.0,0.0,0.0,0.0,0.0,0.0,0.0,0.0,0.0,0.0,0.0,0.0,0.0,0.0,0.0,0.0,0.0,0.0,0.0,0.0,0.0,0.0,0.0,0.0,0.0,0.0,0.0,0.0,0.0,0.0
0.697607550051989,0.8063663445158106,0.8791589431442811,0.9090629905857508,0.893700393456391,0.8366493794830566,0.7459960456360687,0.6331998709747099,0.5112790324132316,0.3925385014256671,0.2878289613785591,0.2046114515169612,0.14653436580448773,0.11349507424071244,0.10203982726688231,0.10714699332982396,0.12284782414037507,0.14346918331870961,0.16443406332960492,0.1824445977490283,0.19630091596134872,0.20586918295913334,0.2118684491160928,0.2153730524184974,0.21715622708531934,0.21824081664003678,0.21887513168230702,0.21898412441616955,0.2184249010831787,0.21712636268155358,0.21575953614077195,0.2152083360426316,0.21667883877053046,0.22147674974786,0.2306641961932589,0.2448768607237277,0.2638781072861838,0.2865808092948926,0.3112021773097775,0.33551858849367033,0.35759434108601046,0.37601943926538445,0.3902937865503782,0.40092760487169504,0.4091341201435944,0.41684041046112136,0.42592081124507364,0.43765587450366944,0.4522720494200997,0.4683724918299187,0.4843462889677183,0.49737512727143696,0.504559275151307,0.5036164939685044,0.4928381650732298,0.47351011782627817,0.44721376795817985,0.41642901946855104,0.38406159858502853,0.35242830906872613,0.3242393864161018,0.300501453436096,0.28099826869233757,0.2645067032015526,0.24894854281270765,0.2328288452628113,0.21492684087112882,0.1948432981199076,0.17306176357583816,0.15049005200063387,0.12893977728938325,0.1098329719330377,0.09403905266772805,0.0816168239501237,0.07154008921970845,0.0627352060891402,0.05362844014492328,0.042920065410857064,0.030042221541151735,0.015192954523135481,0.00019282113186386252,-0.012637626479604404,-0.02066795152475053,-0.021532380867820226,-0.013930724061141611,0.0028220593568101843,0.027771224517059493,0.058743386496216535,0.09272687404649937,0.1259940800452867,0.15595067205033333,0.1802355652307535,0.19740319939352297,0.20698612896081894,0.20883760078672328,0.20468859828973335,0.1960914046902734,0.18473901285283942,0.17228672488062546,0.15985625178890062,0.149281843166105,0.14159274609649203,0.13753102852140406,0.13758732080043196,0.14179403154065873,0.1505306950153056,0.16327987052402565,0.17907462481700923,0.1965842234085126,0.21402320433628033,0.2301225326424003,0.24326584697429884,0.2520665404123763,0.2555811260165932,0.2532373152668375,0.24568360827097585,0.23385526729823242,0.21913621686055382,0.20316139559196292,0.18705409445394997,0.17281860838540564,0.16168924233001383,0.15433699918862057,0.15074166516733262,0.14936517347258485,0.14977724394302738,0.15093810489960233,0.151947158031432,0.152217614769964,0.15102903751408944,0.1492592827748819,0.1480460405930675,0.14895388421920214,0.1536935643725954,0.16348679301247876,0.17961302057112244,0.20246905951543132,0.23147550297123962,0.26492283741358347,0.299814076774218,0.33256603207893326,0.3589160630135787,0.37462933680282506,0.37615211045457153,0.36123484292513786,0.32957123695983953,0.282737550616743,0.2243141362331929,0.15954306759865988,0.09446548094852157,0.035701784833523514,-0.01123538774659181,-0.04260894149923665,-0.057065975257251836,-0.05620929248261093,-0.04306638265228839,-0.022390684675375822,0.0007159160780582537,0.021967519740805564,0.0,0.0,0.0,0.0,0.0,0.0,0.0,0.0,0.0,0.0,0.0,0.0,0.0,0.0,0.0,0.0,0.0,0.0,0.0,0.0,0.0,0.0,0.0,0.0,0.0,0.0,0.0,0.0,0.0,0.0,0.0,0.0,0.0,0.0,0.0,0.0,0.0,0.0,0.0,0.0,0.0,0.0,0.0,0.0,0.0,0.0,0.0,0.0,0.0,0.0,0.0,0.0,0.0,0.0,0.0,0.0,0.0,0.0,0.0,0.0,0.0,0.0,0.0,0.0,0.0,0.0,0.0,0.0,0.0,0.0,0.0,0.0,0.0,0.0,0.0,0.0,0.0,0.0,0.0,0.0,0.0,0.0,0.0,0.0,0.0,0.0,0.0,0.0,0.0,0.0,0.0,0.0,0.0,0.0,0.0,0.0,0.0,0.0,0.0,0.0,0.0,0.0,0.0,0.0,0.0,0.0,0.0,0.0,0.0,0.0,0.0,0.0,0.0,0.0,0.0,0.0,0.0,0.0,0.0,0.0,0.0,0.0,0.0,0.0,0.0,0.0,0.0,0.0,0.0,0.0,0.0,0.0,0.0,0.0,0.0,0.0,0.0,0.0,0.0,0.0,0.0
-0.05620929248261093,-0.04306638265228839,-0.022390684675375822,0.0007159160780582537,0.021967519740805564,0.03863576159585276,0.05112689902633957,0.06220133100893799,0.07679240297433391,0.10100101473886294,0.14054395864824346,0.19988953281194488,0.2802360579670922,0.3790259361488345,0.48992535414117533,0.6031509147455892,0.708196589959934,0.7943821379528349,0.8530152417071735,0.8788496935434875,0.8702525135200868,0.8312913330929022,0.7692610538433549,0.6936946125087571,0.6145132341603711,0.5397264628013296,0.47542984485946915,0.42379065517196085,0.38342808955420565,0.35017677477725445,0.3181363093333416,0.28205135621954563,0.2379604914572508,0.18447803205293598,0.12322576558166598,0.058383029500393376,-0.0033931295432812125,-0.055026255996480124,-0.0900424454134851,-0.1037252436139226,-0.09408974207321648,-0.06156962300013833,-0.00976847776927368,0.05549355243670897,0.12711101741590947,0.1976355201798124,0.2604999008663396,0.3103066969291713,0.34338817080140777,0.35794727844574153,0.35397912327808595,0.33299002151829377,0.29781274650585815,0.2522864409320402,0.20101654207947522,0.14905956500927794,0.10203272146055843,0.06553751819758911,0.04479740884078279,0.04408580571320885,0.06585981607474302,0.11087847307928411,0.17714407640974644,0.2599951677987402,0.35240975489208004,0.44536340807517827,0.5301927808172078,0.5983369759885117,0.6431135872113922,0.6607337040709512,0.6503363159953411,0.6158104787991674,0.5627838025340273,0.49846428104615603,0.4304554029580664,0.3651269931331154,0.3081515333322924,0.262056925019917,0.22678987325328548,0.20017710184518164,0.17840451485984823,0.1582123600908404,0.13654461889885403,0.11166851452264269,0.08349950438715975,0.05322367779467105,0.02368219804537873,-0.0021309500851102474,-0.02161028242295199,-0.03317809307086214,-0.036832729456805255,-0.033619465723500296,-0.0255850465401956,-0.015209049282855564,-0.004821198089208146,0.003563328447194818,0.009658076930816885,0.014002821444324434,0.018013367492027737,0.023535696892445848,0.031805390200543494,0.04460949379772708,0.06231727271649356,0.08428305103963006,0.10895776600815921,0.13372490576568621,0.15663110332582775,0.1754755165287195,0.18846134481895985,0.19437983512387255,0.19234030796845894,0.18290431799107,0.16717051667260627,0.1468935492012363,0.12429167781940612,0.1013613033585191,0.08105781856064388,0.06552361868852812,0.05631097868752863,0.054203520514939665,0.058617981787456155,0.06944849354341007,0.08513493223859502,0.10368130627465044,0.12304686278197811,0.14112377499750348,0.15728403295939838,0.17101589717387525,0.18238146170737365,0.19189020504901655,0.20005439848436626,0.2079543401500971,0.21620839494148805,0.22510554304250607,0.2345795238158725,0.2439789472833288,0.2531451829864239,0.2617787596350347,0.2697775448135841,0.27726884258272844,0.28419157331093897,0.29124543702170713,0.29895532958022353,0.3076563205451816,0.31732325941519496,0.3273081684168623,0.33700312760624485,0.3456065670777008,0.3524825012996905,0.3573776762476614,0.3605018762143225,0.36258597772110934,0.3645807339176337,0.3673822770903001,0.37150355629917753,0.3766329571499003,0.3821529492578657,0.38665520259612296,0.38838664859826894,0.0,0.0,0.0,0.0,0.0,0.0,0.0,0.0,0.0,0.0,0.0,0.0,0.0,0.0,0.0,0.0,0.0,0.0,0.0,0.0,0.0,0.0,0.0,0.0,0.0,0.0,0.0,0.0,0.0,0.0,0.0,0.0,0.0,0.0,0.0,0.0,0.0,0.0,0.0,0.0,0.0,0.0,0.0,0.0,0.0,0.0,0.0,0.0,0.0,0.0,0.0,0.0,0.0,0.0,0.0,0.0,0.0,0.0,0.0,0.0,0.0,0.0,0.0,0.0,0.0,0.0,0.0,0.0,0.0,0.0,0.0,0.0,0.0,0.0,0.0,0.0,0.0,0.0,0.0,0.0,0.0,0.0,0.0,0.0,0.0,0.0,0.0,0.0,0.0,0.0,0.0,0.0,0.0,0.0,0.0,0.0,0.0,0.0,0.0,0.0,0.0,0.0,0.0,0.0,0.0,0.0,0.0,0.0,0.0,0.0,0.0,0.0,0.0,0.0,0.0,0.0,0.0,0.0,0.0,0.0,0.0,0.0,0.0,0.0,0.0,0.0,0.0,0.0,0.0,0.0,0.0,0.0,0.0,0.0,0.0,0.0,0.0,0.0,0.0,0.0,0.0
0.16316443233715233,0.1071729398685673,0.06250447707589854,0.03302778489479877,0.02068522759755535,0.02467541389602609,0.04355584609276702,0.07379082094143898,0.1109634608569991,0.15049772296988842,0.18787194613794334,0.22061527082927423,0.24702997867098545,0.26670243681566574,0.2803102183422215,0.28897709762665685,0.29486592900293335,0.29957423213316925,0.3042633991410517,0.30954674925199016,0.31525766142813666,0.3214883749021345,0.32777949335618844,0.3336541957896447,0.33878328016175885,0.34282867942252815,0.3462112467453671,0.34921882018539274,0.3521434113392947,0.3551829754326129,0.3581901336970504,0.36137056945848856,0.3646551274601194,0.3680237082790508,0.37158267070346696,0.375401997109717,0.3800164397107348,0.38568601473449793,0.39244554285469235,0.4000154374122933,0.4074976922804258,0.41457026859211804,0.42058241634300536,0.4251695772656588,0.4284482041211196,0.4306035371188983,0.43330302020088196,0.43773608484498233,0.44474393815932844,0.4544337498392502,0.46569938899962143,0.4768741602361579,0.48515312996791354,0.48732528075765064,0.4804192955573808,0.4624114269025606,0.432617040387507,0.3920227444915584,0.3432148194341179,0.29001616118610746,0.23673843947103224,0.18801023228286734,0.1475376027123467,0.11776807423106259,0.09961302681483411,0.09208715252837475,0.09375054820478655,0.101948019485108,0.11372361074003572,0.12633235442756954,0.13733932170354718,0.14578821016744997,0.1511228467225636,0.15339774722111113,0.15305168204030498,0.15045213434725663,0.1464581224984759,0.14137406517920723,0.13533080388906105,0.1284495612927289,0.12084492453617272,0.11349780400869597,0.10737115161889829,0.10370007871590692,0.10384744054515277,0.10888374388517885,0.11997352320560338,0.1371754720694563,0.15962438264052914,0.1855371975302257,0.21211654313374703,0.23670967062241813,0.25604169384860864,0.267030326050701,0.26722695451529865,0.25488299720721236,0.23031751630875702,0.19472141802413082,0.1505808404136841,0.10150728378263185,0.05152405170314054,0.0059186919786131725,-0.030811577807787812,-0.05499217230196049,-0.06421238695003499,-0.05807814198409881,-0.036790449488023624,-0.0027512736166471824,0.040303178610973864,0.08778462296065749,0.13443868662240355,0.17614205907196823,0.2091337560923149,0.23077773110125693,0.23978163287134993,0.23594631996945745,0.22098765919120222,0.19745776699911388,0.16858350950861348,0.13779239533691054,0.10786513784568479,0.08164547919777325,0.06074064606220185,0.04565191964953482,0.03580315780247113,0.02933562240151538,0.024818994748398777,0.02053570383677197,0.015234098089086589,0.008408318049552627,-1.4972749922226834e-05,-0.008565878754512217,-0.015615841773978739,-0.019505086832315173,-0.018986521703365886,-0.013928231730511954,-0.004305473322688708,0.008907878880588497,0.024265291349230333,0.040190265775487496,0.054796906777674466,0.06779555937000958,0.07915008694142445,0.08939304222888267,0.09936705325434086,0.10921935193587715,0.12026211101784869,0.1328759266317634,0.14698949869295377,0.1621126013943892,0.17699620822288825,0.19121034298089706,0.2041370962842896,0.2153946171563126,0.22485814953443756,0.23238384730772363,0.23840404581998237,0.24339952001502344,0.2478779752713682,0.0,0.0,0.0,0.0,0.0,0.0,0.0,0.0,0.0,0.0,0.0,0.0,0.0,0.0,0.0,0.0,0.0,0.0,0.0,0.0,0.0,0.0,0.0,0.0,0.0,0.0,0.0,0.0,0.0,0.0,0.0,0.0,0.0,0.0,0.0,0.0,0.0,0.0,0.0,0.0,0.0,0.0,0.0,0.0,0.0,0.0,0.0,0.0,0.0,0.0,0.0,0.0,0.0,0.0,0.0,0.0,0.0,0.0,0.0,0.0,0.0,0.0,0.0,0.0,0.0,0.0,0.0,0.0,0.0,0.0,0.0,0.0,0.0,0.0,0.0,0.0,0.0,0.0,0.0,0.0,0.0,0.0,0.0,0.0,0.0,0.0,0.0,0.0,0.0,0.0,0.0,0.0,0.0,0.0,0.0,0.0,0.0,0.0,0.0,0.0,0.0,0.0,0.0,0.0,0.0,0.0,0.0,0.0,0.0,0.0,0.0,0.0,0.0,0.0,0.0,0.0,0.0,0.0,0.0,0.0,0.0,0.0,0.0,0.0,0.0,0.0,0.0,0.0,0.0,0.0,0.0,0.0,0.0,0.0,0.0,0.0,0.0,0.0,0.0,0.0,0.0
0.576162298413146,0.5408513279766869,0.49963727833090493,0.45724247044921534,0.4173680791387736,0.3826560289258414,0.35338314257400755,0.32768878657268613,0.30205764656418005,0.27194710184597093,0.2337674679769269,0.18507041514929812,0.12568378012585618,0.058115606467719884,-0.01292614851167157,-0.08012703183990193,-0.13578374853197472,-0.1727746514054366,-0.18582643362874032,-0.1728902243668652,-0.13430601317861024,-0.07402648332414456,0.00141124558045774,0.08391198758734034,0.16469820460697157,0.23664526158430718,0.2939837067977231,0.3332888587832585,0.35365040880342097,0.3561614126980979,0.34436519096383267,0.32237331159569105,0.29457234331303733,0.2650488761324449,0.23678521588988874,0.21276125680572505,0.19447033938828345,0.18244955122270057,0.17644734346146884,0.1751203012624637,0.1779245230118099,0.18365416617829625,0.19111002407126823,0.19920422525707934,0.20642116429707733,0.2127675458248196,0.21773590534953632,0.22091157819542337,0.22196110705268984,0.2199773281238603,0.21573187327716858,0.2093657582310931,0.20121835569159646,0.19188924231504959,0.18166545557957112,0.17235810084086742,0.16522358474888793,0.16141384753679766,0.1618173775774093,0.16643114568425996,0.17585584433607124,0.1897203845565197,0.20715070739073885,0.2268094720122745,0.24669382857166042,0.26507470868795435,0.2799484967266129,0.28939968111552505,0.2918015664471397,0.2859841716821533,0.2715289494848174,0.24907834599551418,0.22028709011970152,0.1877133066022275,0.15437942541496247,0.12406349437380208,0.10030888139318733,0.08613779372503969,0.08362504675731532,0.0932221777677592,0.1147880776130909,0.14634723196318122,0.18478817434237094,0.22633010545492624,0.2671326076715587,0.30383568610648753,0.3337806202184711,0.35552753412223886,0.3690351641525371,0.376009106942878,0.37828953960319683,0.3780621528931171,0.3772190378815765,0.37701891342219707,0.37789030654016237,0.3798121140043391,0.38212751482584767,0.3840531656121306,0.385002662691857,0.38420612548857697,0.3825671025996635,0.3808786799815441,0.37997764425547037,0.38037498597516445,0.3814666910834535,0.3829533678866042,0.38355440316504186,0.3816701527725297,0.37574730925847183,0.3642512780690128,0.3472051954420677,0.3251788780065031,0.29952488965434443,0.27211122261980236,0.24443958862651702,0.2189359351491639,0.19718537050320445,0.18021528558500252,0.16847513598113298,0.1612875923511559,0.15903250882563913,0.16139892244690576,0.1679071063469454,0.17771827850800723,0.18871543821845643,0.19905033645785886,0.2053089551054455,0.20300289715546432,0.18696142103488161,0.15156135045568975,0.09356482041541539,0.01194175042385875,-0.09078813890734731,-0.2081212207212221,-0.3304886976485626,-0.4443662818123462,-0.5357533208738653,-0.5918437519865023,-0.6032038624773258,-0.5661935698218201,-0.48167330986321927,-0.35697227107962887,-0.20417864834416424,-0.038289430401381254,0.12449534692574564,0.2707414215458423,0.3898310506676222,0.4756011010510542,0.5266250016745633,0.5453335439085201,0.5382407440126394,0.513141954486684,0.4781846093137752,0.4407213318898883,0.4061940296078343,0.3789967835270679,0.36119886440600213,0.35332221835666505,0.3548176621052134,0.0,0.0,0.0,0.0,0.0,0.0,0.0,0.0,0.0,0.0,0.0,0.0,0.0,0.0,0.0,0.0,0.0,0.0,0.0,0.0,0.0,0.0,0.0,0.0,0.0,0.0,0.0,0.0,0.0,0.0,0.0,0.0,0.0,0.0,0.0,0.0,0.0,0.0,0.0,0.0,0.0,0.0,0.0,0.0,0.0,0.0,0.0,0.0,0.0,0.0,0.0,0.0,0.0,0.0,0.0,0.0,0.0,0.0,0.0,0.0,0.0,0.0,0.0,0.0,0.0,0.0,0.0,0.0,0.0,0.0,0.0,0.0,0.0,0.0,0.0,0.0,0.0,0.0,0.0,0.0,0.0,0.0,0.0,0.0,0.0,0.0,0.0,0.0,0.0,0.0,0.0,0.0,0.0,0.0,0.0,0.0,0.0,0.0,0.0,0.0,0.0,0.0,0.0,0.0,0.0,0.0,0.0,0.0,0.0,0.0,0.0,0.0,0.0,0.0,0.0,0.0,0.0,0.0,0.0,0.0,0.0,0.0,0.0,0.0,0.0,0.0,0.0,0.0,0.0,0.0,0.0,0.0,0.0,0.0,0.0,0.0,0.0,0.0,0.0,0.0,0.0
-0.4443662818123462,-0.5357533208738653,-0.5918437519865023,-0.6032038624773258,-0.5661935698218201,-0.48167330986321927,-0.35697227107962887,-0.20417864834416424,-0.038289430401381254,0.12449534692574564,0.2707414215458423,0.3898310506676222,0.4756011010510542,0.5266250016745633,0.5453335439085201,0.5382407440126394,0.513141954486684,0.4781846093137752,0.4407213318898883,0.4061940296078343,0.3789967835270679,0.36119886440600213,0.35332221835666505,0.3548176621052134,0.3641992179238659,0.38045662152518056,0.40197575729988033,0.42701243656529125,0.453718529328082,0.4799902404332999,0.5043072689918032,0.5251018808282948,0.5413125011256927,0.5526193965509505,0.5594448141833576,0.563167287786661,0.5653578006139667,0.5675071359366446,0.5706192676584875,0.5748546619048017,0.5798716367903782,0.5845905475175321,0.5877949479048338,0.5886191387660245,0.5868043468651472,0.5831884201688201,0.5789982420304906,0.5755872114148699,0.5739006825580281,0.5740187080393649,0.5748069086336577,0.5743070320458165,0.569962709920592,0.5591822263500316,0.5400908634819128,0.5114529212928103,0.4740813585415243,0.43026858754303215,0.38330721306782267,0.3367555030511413,0.29396591549308204,0.25744366040204286,0.22854890283582982,0.20743219978561378,0.19293753557880347,0.18394822633362767,0.17845714579078842,0.17449525880655772,0.17050621834174462,0.165276235841181,0.1589081305031713,0.15141986030732665,0.14295153929277735,0.1335802368978755,0.12294781367788588,0.11122644837135098,0.09813301048703939,0.0835187645909492,0.06758772521452246,0.05061957092986124,0.034297641943341166,0.019961203990994197,0.008810394558388654,0.0015952135311694212,-0.0021389118114731173,-0.002328378966262203,-0.00021183089561230782,0.0026653824070431605,0.004919360111105769,0.0052888698286318635,0.004545314843565104,0.0036596333870537044,0.004251744105721977,0.008243506691042119,0.016982831892727812,0.03227322223376593,0.0542484250794259,0.08186089959013947,0.11300694276634884,0.14435758030048837,0.17339736078974335,0.19698421213660172,0.21240846819138412,0.21777037884165557,0.2117167144424293,0.19533782578262388,0.17016525551615322,0.13866682264148206,0.10398758717816751,0.06926420139279915,0.038281415194591176,0.013780159859772448,-0.0024599799974914446,-0.009795204485320511,-0.008826671908601801,-0.0008198294406965314,0.012072580644413836,0.027427886906089844,0.0430105510997068,0.05695168499482403,0.06871106421445258,0.07842105451235924,0.08698985904122249,0.0958163066847341,0.1060863888613974,0.1193782002245393,0.13641363262421216,0.15709548591900865,0.18043795899819526,0.20445339781953345,0.227089061712818,0.24600913044030004,0.25914993782972784,0.2650596113116564,0.26301245474738055,0.25343800457423177,0.2375886774189116,0.21739455014310807,0.19516315715776583,0.17317481967976533,0.1536610935529046,0.13840907285810639,0.12869957001741222,0.12526670300387527,0.12825146658405753,0.1373970176233731,0.15194027099809274,0.17066320028047194,0.19191006350355283,0.21340333006201606,0.23308400402103088,0.24859572317830775,0.2577049094935432,0.2585534240032304,0.24951124137939523,0.2307183960130847,0.20301173114146373,0.16831997819818992,0.12953794482889955,0.0,0.0,0.0,0.0,0.0,0.0,0.0,0.0,0.0,0.0,0.0,0.0,0.0,0.0,0.0,0.0,0.0,0.0,0.0,0.0,0.0,0.0,0.0,0.0,0.0,0.0,0.0,0.0,0.0,0.0,0.0,0.0,0.0,0.0,0.0,0.0,0.0,0.0,0.0,0.0,0.0,0.0,0.0,0.0,0.0,0.0,0.0,0.0,0.0,0.0,0.0,0.0,0.0,0.0,0.0,0.0,0.0,0.0,0.0,0.0,0.0,0.0,0.0,0.0,0.0,0.0,0.0,0.0,0.0,0.0,0.0,0.0,0.0,0.0,0.0,0.0,0.0,0.0,0.0,0.0,0.0,0.0,0.0,0.0,0.0,0.0,0.0,0.0,0.0,0.0,0.0,0.0,0.0,0.0,0.0,0.0,0.0,0.0,0.0,0.0,0.0,0.0,0.0,0.0,0.0,0.0,0.0,0.0,0.0,0.0,0.0,0.0,0.0,0.0,0.0,0.0,0.0,0.0,0.0,0.0,0.0,0.0,0.0,0.0,0.0,0.0,0.0,0.0,0.0,0.0,0.0,0.0,0.0,0.0,0.0,0.0,0.0,0.0,0.0,0.0,0.0
0.05927292509061282,0.0980972715007963,0.14081079259231782,0.18282874412872785,0.22052458537742928,0.25072393876080035,0.27125748444781583,0.281099119530067,0.2797606960264354,0.268990429167147,0.2510594729125844,0.228800949946983,0.20516548255582318,0.18220989820213448,0.16244982986032572,0.1470804686708696,0.13627641822802916,0.12923184558157935,0.1238665751313585,0.11886564034962006,0.11260490894114002,0.10405211364853213,0.09307999109117161,0.08019598122745379,0.0676330764952147,0.05788834063988837,0.05358110059676029,0.056928136600763894,0.06904204366027475,0.09039668259517551,0.12001730966385982,0.15581697969864328,0.19489535253029674,0.23372404884483577,0.2693361391103848,0.29894742158852333,0.3205055874795314,0.3328625684598296,0.33560167650438055,0.32968860356587854,0.3164947674536412,0.2979332177418475,0.27633900212432033,0.2542433679483532,0.23468618830271953,0.22061846982667857,0.21485756557435798,0.21981543578881105,0.23711706218959785,0.2673394451991176,0.30961571968224444,0.3615003917715115,0.4190622912180535,0.4770579977508467,0.5303017689571577,0.5737996315567387,0.603777948538766,0.618309146647296,0.6171966949344443,0.6031471419977943,0.5799407552809057,0.5520189852570769,0.523572857790328,0.4974346153479719,0.475554345170292,0.45790704333015203,0.44307555879253413,0.42883656893336014,0.4126701423038831,0.3930976238655593,0.369471656894816,0.34230462058670913,0.31307838179818637,0.28364321082193844,0.25621175602901664,0.2323484706600386,0.2127848171993706,0.19732019466301265,0.1848423550103478,0.17406060711202614,0.1635649790480761,0.15232072431343813,0.13991996367678164,0.12645432284003602,0.1130009305955635,0.1006350699355779,0.09030424025060577,0.08251973269055062,0.07693413467837855,0.0732091544235279,0.07019986772197348,0.06667660735948552,0.06176989980767093,0.05520998596446321,0.04802999042844945,0.04182355932829414,0.038731990269291104,0.04102006692479126,0.05054178451033009,0.06842346443971505,0.09436615854571354,0.12673131980672503,0.16275877924039725,0.19874235144238991,0.23157207100560595,0.25811011630346037,0.2761019837638438,0.28449749155600323,0.2830173358772863,0.27377552435222213,0.2589075594108767,0.24084778071205082,0.22194696279221898,0.2037225367289411,0.18811494369975537,0.1757006477822661,0.16634101197216067,0.15939643402843476,0.15365584444994662,0.14876376736760666,0.14404216527372532,0.13907060556955883,0.13372806634162335,0.12773957834083008,0.1218938841382202,0.11654639515343324,0.11192340155615109,0.10805969865481198,0.1043320428924525,0.10101475604437352,0.09802347839863033,0.09535132901081111,0.09304161075535879,0.09084074278420454,0.08884703035509389,0.08662884004072291,0.08339012811791972,0.0780235228559056,0.06927139571027785,0.056105902079910994,0.03791014274745229,0.01486640005201357,-0.011826487753307463,-0.040005849732326106,-0.06648137985416055,-0.08772209361190263,-0.10033697621519544,-0.10167649836252053,-0.09048637550107516,-0.06677942062982453,-0.032255377609933085,0.010031883624263124,0.056125171183511895,0.10125577383045832,0.14199068077134144,0.1753758457609683,0.19958208443117,0.2139268407295443,0.21786460544938577,0.0,0.0,0.0,0.0,0.0,0.0,0.0,0.0,0.0,0.0,0.0,0.0,0.0,0.0,0.0,0.0,0.0,0.0,0.0,0.0,0.0,0.0,0.0,0.0,0.0,0.0,0.0,0.0,0.0,0.0,0.0,0.0,0.0,0.0,0.0,0.0,0.0,0.0,0.0,0.0,0.0,0.0,0.0,0.0,0.0,0.0,0.0,0.0,0.0,0.0,0.0,0.0,0.0,0.0,0.0,0.0,0.0,0.0,0.0,0.0,0.0,0.0,0.0,0.0,0.0,0.0,0.0,0.0,0.0,0.0,0.0,0.0,0.0,0.0,0.0,0.0,0.0,0.0,0.0,0.0,0.0,0.0,0.0,0.0,0.0,0.0,0.0,0.0,0.0,0.0,0.0,0.0,0.0,0.0,0.0,0.0,0.0,0.0,0.0,0.0,0.0,0.0,0.0,0.0,0.0,0.0,0.0,0.0,0.0,0.0,0.0,0.0,0.0,0.0,0.0,0.0,0.0,0.0,0.0,0.0,0.0,0.0,0.0,0.0,0.0,0.0,0.0,0.0,0.0,0.0,0.0,0.0,0.0,0.0,0.0,0.0,0.0,0.0,0.0,0.0,0.0
0.6171966949344443,0.6031471419977943,0.5799407552809057,0.5520189852570769,0.523572857790328,0.4974346153479719,0.475554345170292,0.45790704333015203,0.44307555879253413,0.42883656893336014,0.4126701423038831,0.3930976238655593,0.369471656894816,0.34230462058670913,0.31307838179818637,0.28364321082193844,0.25621175602901664,0.2323484706600386,0.2127848171993706,0.19732019466301265,0.1848423550103478,0.17406060711202614,0.1635649790480761,0.15232072431343813,0.13991996367678164,0.12645432284003602,0.1130009305955635,0.1006350699355779,0.09030424025060577,0.08251973269055062,0.07693413467837855,0.0732091544235279,0.07019986772197348,0.06667660735948552,0.06176989980767093,0.05520998596446321,0.04802999042844945,0.04182355932829414,0.038731990269291104,0.04102006692479126,0.05054178451033009,0.06842346443971505,0.09436615854571354,0.12673131980672503,0.16275877924039725,0.19874235144238991,0.23157207100560595,0.25811011630346037,0.2761019837638438,0.28449749155600323,0.2830173358772863,0.27377552435222213,0.2589075594108767,0.24084778071205082,0.22194696279221898,0.2037225367289411,0.18811494369975537,0.1757006477822661,0.16634101197216067,0.15939643402843476,0.15365584444994662,0.14876376736760666,0.14404216527372532,0.13907060556955883,0.13372806634162335,0.12773957834083008,0.1218938841382202,0.11654639515343324,0.11192340155615109,0.10805969865481198,0.1043320428924525,0.10101475604437352,0.09802347839863033,0.09535132901081111,0.09304161075535879,0.09084074278420454,0.08884703035509389,0.08662884004072291,0.08339012811791972,0.0780235228559056,0.06927139571027785,0.056105902079910994,0.03791014274745229,0.01486640005201357,-0.011826487753307463,-0.040005849732326106,-0.06648137985416055,-0.08772209361190263,-0.10033697621519544,-0.10167649836252053,-0.09048637550107516,-0.06677942062982453,-0.032255377609933085,0.010031883624263124,0.056125171183511895,0.10125577383045832,0.14199068077134144,0.1753758457609683,0.19958208443117,0.2139268407295443,0.21786460544938577,0.21338239934983425,0.2024080134977158,0.1871862841239125,0.170034942532223,0.15251916453965517,0.13739031581096764,0.12675103289792897,0.12248711899008502,0.1261430443349017,0.13829548391669483,0.15977665786963025,0.19022290491510194,0.22824911890540114,0.27134133645597064,0.3155217077793983,0.35672465781262314,0.39020073225832813,0.41138254356512133,0.4165396285770395,0.4031326232354738,0.3711941999091007,0.3227817126729012,0.2620904897679342,0.1949676081782942,0.1277677242330298,0.06743021429691419,0.019562349170892585,-0.012173333378434301,-0.0266044122204512,-0.025550072296653664,-0.012178508272409481,0.008781235136934084,0.03236514438817879,0.054446583333183245,0.07223127864513153,0.0859595487765488,0.09806273547082407,0.11284752397786273,0.1354975788868177,0.17043889667811568,0.2212067679992822,0.28874361341623855,0.370988159796179,0.462866129720733,0.5564423370876311,0.6434022475118171,0.7153828969395625,0.765658581386472,0.7902346805546482,0.7879259751229567,0.7619561624524943,0.71789008690909,0.6629659101162996,0.6047556029365573,0.5494745894582667,0.502188711025655,0.4651773186256621,0.4382591464116159,0.0,0.0,0.0,0.0,0.0,0.0,0.0,0.0,0.0,0.0,0.0,0.0,0.0,0.0,0.0,0.0,0.0,0.0,0.0,0.0,0.0,0.0,0.0,0.0,0.0,0.0,0.0,0.0,0.0,0.0,0.0,0.0,0.0,0.0,0.0,0.0,0.0,0.0,0.0,0.0,0.0,0.0,0.0,0.0,0.0,0.0,0.0,0.0,0.0,0.0,0.0,0.0,0.0,0.0,0.0,0.0,0.0,0.0,0.0,0.0,0.0,0.0,0.0,0.0,0.0,0.0,0.0,0.0,0.0,0.0,0.0,0.0,0.0,0.0,0.0,0.0,0.0,0.0,0.0,0.0,0.0,0.0,0.0,0.0,0.0,0.0,0.0,0.0,0.0,0.0,0.0,0.0,0.0,0.0,0.0,0.0,0.0,0.0,0.0,0.0,0.0,0.0,0.0,0.0,0.0,0.0,0.0,0.0,0.0,0.0,0.0,0.0,0.0,0.0,0.0,0.0,0.0,0.0,0.0,0.0,0.0,0.0,0.0,0.0,0.0,0.0,0.0,0.0,0.0,0.0,0.0,0.0,0.0,0.0,0.0,0.0,0.0,0.0,0.0,0.0,0.0
0.2139268407295443,0.21786460544938577,0.21338239934983425,0.2024080134977158,0.1871862841239125,0.170034942532223,0.15251916453965517,0.13739031581096764,0.12675103289792897,0.12248711899008502,0.1261430443349017,0.13829548391669483,0.15977665786963025,0.19022290491510194,0.22824911890540114,0.27134133645597064,0.3155217077793983,0.35672465781262314,0.39020073225832813,0.41138254356512133,0.4165396285770395,0.4031326232354738,0.3711941999091007,0.3227817126729012,0.2620904897679342,0.1949676081782942,0.1277677242330298,0.06743021429691419,0.019562349170892585,-0.012173333378434301,-0.0266044122204512,-0.025550072296653664,-0.012178508272409481,0.008781235136934084,0.03236514438817879,0.054446583333183245,0.07223127864513153,0.0859595487765488,0.09806273547082407,0.11284752397786273,0.1354975788868177,0.17043889667811568,0.2212067679992822,0.28874361341623855,0.370988159796179,0.462866129720733,0.5564423370876311,0.6434022475118171,0.7153828969395625,0.765658581386472,0.7902346805546482,0.7879259751229567,0.7619561624524943,0.71789008690909,0.6629659101162996,0.6047556029365573,0.5494745894582667,0.502188711025655,0.4651773186256621,0.4382591464116159,0.4192765253184662,0.40465738249935596,0.39117881177125235,0.3760729909855854,0.35784720597321984,0.3365195316356562,0.31311149802108273,0.2904702919588758,0.27143639675009296,0.25859957545015655,0.25376253795284615,0.2570883998980123,0.2686582401996912,0.2868800399233006,0.3093724679006013,0.333431309566126,0.35623068378871287,0.37616459461623025,0.3922028409899935,0.4042619987392558,0.4131000811794059,0.4199722310095197,0.4264276883407281,0.4337851981778567,0.4428023090216862,0.45347377563975266,0.4648681542252149,0.47586596883352766,0.48505762710874567,0.49126311288720065,0.4938474701000995,0.49260689952883274,0.48859524185590625,0.4830888115184292,0.477458264064254,0.47276352724861465,0.46904626515864206,0.4664754021226995,0.46388889657503185,0.45957100527206335,0.4516795843971298,0.4382223528795168,0.41919308183955933,0.3945996950837301,0.36534223327557636,0.333179350241035,0.300060170770935,0.2693912991719114,0.24373430783859604,0.22509286089046535,0.21467911608494025,0.21236306417061906,0.2181503227834897,0.23070886223063597,0.24807078319593587,0.2678727268165795,0.2872637132628686,0.3042469709976532,0.316642814546849,0.322661937288336,0.3210663375482186,0.3110695891604815,0.29319509186662845,0.268427621065099,0.23846357367696575,0.20560198959419232,0.17237003876552368,0.14191696194402545,0.11682490910755503,0.09913589904297539,0.09013764164016605,0.09009918014264318,0.09878980958175844,0.11467765317765612,0.13549334353268155,0.15857172282440796,0.18095279297702155,0.20067060378263948,0.21574466082379398,0.22477117200993474,0.22700580400864984,0.22196568618111245,0.21075348895112886,0.19437085628584824,0.17418419509445598,0.15187576103299041,0.12906888960642268,0.10832179125274209,0.09161344135558674,0.08065657194347012,0.07674571805733098,0.0803849334374581,0.09196834841480976,0.11057404329686484,0.1344234554693714,0.1610813398501315,0.18749649179275482,0.21126067932992668,0.22991079367365785,0.0,0.0,0.0,0.0,0.0,0.0,0.0,0.0,0.0,0.0,0.0,0.0,0.0,0.0,0.0,0.0,0.0,0.0,0.0,0.0,0.0,0.0,0.0,0.0,0.0,0.0,0.0,0.0,0.0,0.0,0.0,0.0,0.0,0.0,0.0,0.0,0.0,0.0,0.0,0.0,0.0,0.0,0.0,0.0,0.0,0.0,0.0,0.0,0.0,0.0,0.0,0.0,0.0,0.0,0.0,0.0,0.0,0.0,0.0,0.0,0.0,0.0,0.0,0.0,0.0,0.0,0.0,0.0,0.0,0.0,0.0,0.0,0.0,0.0,0.0,0.0,0.0,0.0,0.0,0.0,0.0,0.0,0.0,0.0,0.0,0.0,0.0,0.0,0.0,0.0,0.0,0.0,0.0,0.0,0.0,0.0,0.0,0.0,0.0,0.0,0.0,0.0,0.0,0.0,0.0,0.0,0.0,0.0,0.0,0.0,0.0,0.0,0.0,0.0,0.0,0.0,0.0,0.0,0.0,0.0,0.0,0.0,0.0,0.0,0.0,0.0,0.0,0.0,0.0,0.0,0.0,0.0,0.0,0.0,0.0,0.0,0.0,0.0,0.0,0.0,0.0
0.7879259751229567,0.7619561624524943,0.71789008690909,0.6629659101162996,0.6047556029365573,0.5494745894582667,0.502188711025655,0.4651773186256621,0.4382591464116159,0.4192765253184662,0.40465738249935596,0.39117881177125235,0.3760729909855854,0.35784720597321984,0.3365195316356562,0.31311149802108273,0.2904702919588758,0.27143639675009296,0.25859957545015655,0.25376253795284615,0.2570883998980123,0.2686582401996912,0.2868800399233006,0.3093724679006013,0.333431309566126,0.35623068378871287,0.37616459461623025,0.3922028409899935,0.4042619987392558,0.4131000811794059,0.4199722310095197,0.4264276883407281,0.4337851981778567,0.4428023090216862,0.45347377563975266,0.4648681542252149,0.47586596883352766,0.48505762710874567,0.49126311288720065,0.4938474701000995,0.49260689952883274,0.48859524185590625,0.4830888115184292,0.477458264064254,0.47276352724861465,0.46904626515864206,0.4664754021226995,0.46388889657503185,0.45957100527206335,0.4516795843971298,0.4382223528795168,0.41919308183955933,0.3945996950837301,0.36534223327557636,0.333179350241035,0.300060170770935,0.2693912991719114,0.24373430783859604,0.22509286089046535,0.21467911608494025,0.21236306417061906,0.2181503227834897,0.23070886223063597,0.24807078319593587,0.2678727268165795,0.2872637132628686,0.3042469709976532,0.316642814546849,0.322661937288336,0.3210663375482186,0.3110695891604815,0.29319509186662845,0.268427621065099,0.23846357367696575,0.20560198959419232,0.17237003876552368,0.14191696194402545,0.11682490910755503,0.09913589904297539,0.09013764164016605,0.09009918014264318,0.09878980958175844,0.11467765317765612,0.13549334353268155,0.15857172282440796,0.18095279297702155,0.20067060378263948,0.21574466082379398,0.22477117200993474,0.22700580400864984,0.22196568618111245,0.21075348895112886,0.19437085628584824,0.17418419509445598,0.15187576103299041,0.12906888960642268,0.10832179125274209,0.09161344135558674,0.08065657194347012,0.07674571805733098,0.0803849334374581,0.09196834841480976,0.11057404329686484,0.1344234554693714,0.1610813398501315,0.18749649179275482,0.21126067932992668,0.22991079367365785,0.24161379300938007,0.24541696164293203,0.24105913862464082,0.22991356991050096,0.21379528158888367,0.19493100459991153,0.17554979474338617,0.15725275047868664,0.14143258784773965,0.12822120972872805,0.11680866478328855,0.1056826278438403,0.09289092268393892,0.07703160547416425,0.05695919067442621,0.03244505782561406,0.004403905034678754,-0.025633923616079766,-0.054153954855052526,-0.07761347386595786,-0.09267448625058324,-0.0968748177744828,-0.09005608678718949,-0.07186398207036551,-0.043866537896533664,-0.008747837383389058,0.03004373807810397,0.06807867171564301,0.10231746355779507,0.12982359664029147,0.14845321747854526,0.15696229393069075,0.15466867486336802,0.14257881959095856,0.12219720726125442,0.09576824701353454,0.06611843745679039,0.03617590577304299,0.009465986501275461,-0.011011077004466846,-0.022890899777948396,-0.02472541901710996,-0.01628380128063917,0.001875591976875323,0.028115989996093493,0.06008284390040643,0.09498569975829678,0.12961958176534452,0.16138935510118807,0.18766236837378356,0.20609395133672764,0.0,0.0,0.0,0.0,0.0,0.0,0.0,0.0,0.0,0.0,0.0,0.0,0.0,0.0,0.0,0.0,0.0,0.0,0.0,0.0,0.0,0.0,0.0,0.0,0.0,0.0,0.0,0.0,0.0,0.0,0.0,0.0,0.0,0.0,0.0,0.0,0.0,0.0,0.0,0.0,0.0,0.0,0.0,0.0,0.0,0.0,0.0,0.0,0.0,0.0,0.0,0.0,0.0,0.0,0.0,0.0,0.0,0.0,0.0,0.0,0.0,0.0,0.0,0.0,0.0,0.0,0.0,0.0,0.0,0.0,0.0,0.0,0.0,0.0,0.0,0.0,0.0,0.0,0.0,0.0,0.0,0.0,0.0,0.0,0.0,0.0,0.0,0.0,0.0,0.0,0.0,0.0,0.0,0.0,0.0,0.0,0.0,0.0,0.0,0.0,0.0,0.0,0.0,0.0,0.0,0.0,0.0,0.0,0.0,0.0,0.0,0.0,0.0,0.0,0.0,0.0,0.0,0.0,0.0,0.0,0.0,0.0,0.0,0.0,0.0,0.0,0.0,0.0,0.0,0.0,0.0,0.0,0.0,0.0,0.0,0.0,0.0,0.0,0.0,0.0,0.0
-0.05343085816680911,-0.041564786924564744,0.001261186014680604,0.07730289544132438,0.18465551014327558,0.3171413493868521,0.46465399686122016,0.6137986536765817,0.7507302078039252,0.8621963582096587,0.9376732354248429,0.9708727806470049,0.9600385118496871,0.9095872992899457,0.828196837979419,0.727489699852884,0.6200142672121332,0.5167285256913688,0.42675031381454925,0.35524353375718476,0.3034484045245172,0.2691557537772614,0.24736628507653097,0.2328836768946296,0.22057080310253044,0.20673063689094467,0.18968315707757624,0.1695479359204789,0.1485892566180434,0.12980385538423422,0.11623786782936357,0.11021056037789104,0.11267993056977217,0.12339614559965628,0.14083390347691982,0.16263396906408767,0.18610920401194866,0.20859533256359641,0.2282925927829688,0.2439937458245656,0.255211481911415,0.2620078476460062,0.264575847762055,0.26362069673363,0.2595517761272825,0.2527647455862362,0.2438370921867684,0.23358108003616793,0.22391064364670168,0.21731284191951472,0.21683786731949392,0.2256663367275306,0.24624891552197936,0.2803248005540232,0.32785156044929703,0.386746624594785,0.4528670745889841,0.5199833307874505,0.5820343769092658,0.6325443618282659,0.6662588945907265,0.6800678124504377,0.6729117911586893,0.6480216450085585,0.6096556620714689,0.5632477035067338,0.5144545294096644,0.46766957050075264,0.42711441920588383,0.3943277759942475,0.3688845413437689,0.3488412463688912,0.3309925991782939,0.31314437290467845,0.2933916023165777,0.27096701238159576,0.24631736552513597,0.22063023195550688,0.19606457148359688,0.17442251351823732,0.1568989999908618,0.14379348468138076,0.13450257521560025,0.12770479509620708,0.12166619538785393,0.11480246512191086,0.10616192906888657,0.0955408220140246,0.08429830936258668,0.07442667449587523,0.06838091124916221,0.06853037345639235,0.07613961794159921,0.09240240572806584,0.11680831693136161,0.14758450835142226,0.18194587855325361,0.21615190787454247,0.24717854251266227,0.27203708378761626,0.2885070915286036,0.2953613836501149,0.29216118608154434,0.28004750192409883,0.26064818850816357,0.23614753679981826,0.20906592335869503,0.1817962548806247,0.1573935438783811,0.13819484879575306,0.12615484318345552,0.12277046306727522,0.12871729972211524,0.14476423222102522,0.17007868080926822,0.20276725126268155,0.23997347987139755,0.2776954640865154,0.3123984250916619,0.3397926510976322,0.3558223266757139,0.3571764966755199,0.3412849939730466,0.30832656126055713,0.2598535489210117,0.19929786340979677,0.13172943779377788,0.06312361332236696,0.0005025466168151778,-0.04974396749796886,-0.08233049213426288,-0.09371762108796412,-0.08255103286069448,-0.049817518400574724,0.0010681835087273503,0.06476093656712273,0.13466004723425717,0.20363105167465825,0.26527758180306416,0.3143223049154468,0.34733388786024366,0.36303771555647846,0.36206160341659016,0.34735649217826875,0.32297512109812065,0.29349638031772046,0.2632256388779917,0.23491797581949572,0.21106701659104118,0.19213358228062039,0.17702711760776887,0.16341356219950498,0.14735796447868263,0.12685566253617367,0.10010895325221505,0.06678217972726215,0.028264653402793403,-0.013015789300725793,-0.05212115463192904,0.0,0.0,0.0,0.0,0.0,0.0,0.0,0.0,0.0,0.0,0.0,0.0,0.0,0.0,0.0,0.0,0.0,0.0,0.0,0.0,0.0,0.0,0.0,0.0,0.0,0.0,0.0,0.0,0.0,0.0,0.0,0.0,0.0,0.0,0.0,0.0,0.0,0.0,0.0,0.0,0.0,0.0,0.0,0.0,0.0,0.0,0.0,0.0,0.0,0.0,0.0,0.0,0.0,0.0,0.0,0.0,0.0,0.0,0.0,0.0,0.0,0.0,0.0,0.0,0.0,0.0,0.0,0.0,0.0,0.0,0.0,0.0,0.0,0.0,0.0,0.0,0.0,0.0,0.0,0.0,0.0,0.0,0.0,0.0,0.0,0.0,0.0,0.0,0.0,0.0,0.0,0.0,0.0,0.0,0.0,0.0,0.0,0.0,0.0,0.0,0.0,0.0,0.0,0.0,0.0,0.0,0.0,0.0,0.0,0.0,0.0,0.0,0.0,0.0,0.0,0.0,0.0,0.0,0.0,0.0,0.0,0.0,0.0,0.0,0.0,0.0,0.0,0.0,0.0,0.0,0.0,0.0,0.0,0.0,0.0,0.0,0.0,0.0,0.0,0.0,0.0
-0.09371762108796412,-0.08255103286069448,-0.049817518400574724,0.0010681835087273503,0.06476093656712273,0.13466004723425717,0.20363105167465825,0.26527758180306416,0.3143223049154468,0.34733388786024366,0.36303771555647846,0.36206160341659016,0.34735649217826875,0.32297512109812065,0.29349638031772046,0.2632256388779917,0.23491797581949572,0.21106701659104118,0.19213358228062039,0.17702711760776887,0.16341356219950498,0.14735796447868263,0.12685566253617367,0.10010895325221505,0.06678217972726215,0.028264653402793403,-0.013015789300725793,-0.05212115463192904,-0.08392830382991698,-0.10349134909149402,-0.1068842553939182,-0.09219592577824702,-0.059008059432744994,-0.009347670236685162,0.05276487307397514,0.1217707675732971,0.19088495983024137,0.25382460539142254,0.30446436049898096,0.337792499978357,0.35042579054051237,0.34064988332581286,0.30970904000295657,0.2605596355093363,0.19805965879704873,0.12853526561444384,0.05891114557117973,-0.0034289000010598166,-0.05221082134993943,-0.08290623019828171,-0.09335525931162471,-0.08414737385691456,-0.05819601887421994,-0.02026021291234516,0.02396074390383672,0.06890935154047738,0.10992473001818288,0.14511225642007,0.17486779219199658,0.202025929191601,0.23117396239257945,0.2669802200449648,0.3145906767612997,0.3766048518639257,0.45265324250556027,0.5390135510185291,0.6283614617550186,0.7124660456002713,0.7820219593872221,0.8287452800693739,0.8468531396444788,0.833547260839128,0.7911331179887804,0.7251956479538995,0.6439868397746658,0.5569308099401529,0.47254795146982265,0.39835943412755465,0.3388929882090259,0.29558200287346414,0.2670084802358268,0.2493341019045147,0.23831256082096508,0.229811907702292,0.22078934653623591,0.2097298957531433,0.1963195282003932,0.18209538214710255,0.16893832631049424,0.15866291425280413,0.15245131127045977,0.15020626989136812,0.15163332777374666,0.15528792290187815,0.15946056628197253,0.16273015215782413,0.16417742029295734,0.16438006497158456,0.16463461673729016,0.16684408119533903,0.17300899304518844,0.18451567752733827,0.202114034032252,0.22545700782648037,0.25313929382809386,0.2829572015416813,0.3121156720543374,0.3385859993174112,0.36093098553447717,0.378792941029092,0.39290541003817425,0.40446034091607874,0.4157901342088359,0.4286590535863896,0.4440985788851215,0.4620856830440148,0.4810606632312368,0.4996927865819443,0.5156129960041476,0.5266187968910274,0.5312659560498555,0.5287389314587552,0.5207946621126979,0.5091581097678602,0.4959151190791374,0.4830129639216937,0.47136240852757,0.46194262091021326,0.45396737399207754,0.4456670466818467,0.43475997179353193,0.41874455190754306,0.39652473774526426,0.36775885058434843,0.3333863480249803,0.29552928299406445,0.2568491802555308,0.22096291350486175,0.1909197542516716,0.16898550419924815,0.15629859419459693,0.1524810718988263,0.15658416511647105,0.1665706858778935,0.17996529986731213,0.19429394441641812,0.20707606188077285,0.21735567519198937,0.2246857707648703,0.22938080091844565,0.23228929463823933,0.23395055266287051,0.23594863467479013,0.2392025599853663,0.24417625519255196,0.25075942967936066,0.2575671034027303,0.26415629892758247,0.2692353481043799,0.0,0.0,0.0,0.0,0.0,0.0,0.0,0.0,0.0,0.0,0.0,0.0,0.0,0.0,0.0,0.0,0.0,0.0,0.0,0.0,0.0,0.0,0.0,0.0,0.0,0.0,0.0,0.0,0.0,0.0,0.0,0.0,0.0,0.0,0.0,0.0,0.0,0.0,0.0,0.0,0.0,0.0,0.0,0.0,0.0,0.0,0.0,0.0,0.0,0.0,0.0,0.0,0.0,0.0,0.0,0.0,0.0,0.0,0.0,0.0,0.0,0.0,0.0,0.0,0.0,0.0,0.0,0.0,0.0,0.0,0.0,0.0,0.0,0.0,0.0,0.0,0.0,0.0,0.0,0.0,0.0,0.0,0.0,0.0,0.0,0.0,0.0,0.0,0.0,0.0,0.0,0.0,0.0,0.0,0.0,0.0,0.0,0.0,0.0,0.0,0.0,0.0,0.0,0.0,0.0,0.0,0.0,0.0,0.0,0.0,0.0,0.0,0.0,0.0,0.0,0.0,0.0,0.0,0.0,0.0,0.0,0.0,0.0,0.0,0.0,0.0,0.0,0.0,0.0,0.0,0.0,0.0,0.0,0.0,0.0,0.0,0.0,0.0,0.0,0.0,0.0
0.6283614617550186,0.7124660456002713,0.7820219593872221,0.8287452800693739,0.8468531396444788,0.833547260839128,0.7911331179887804,0.7251956479538995,0.6439868397746658,0.5569308099401529,0.47254795146982265,0.39835943412755465,0.3388929882090259,0.29558200287346414,0.2670084802358268,0.2493341019045147,0.23831256082096508,0.229811907702292,0.22078934653623591,0.2097298957531433,0.1963195282003932,0.18209538214710255,0.16893832631049424,0.15866291425280413,0.15245131127045977,0.15020626989136812,0.15163332777374666,0.15528792290187815,0.15946056628197253,0.16273015215782413,0.16417742029295734,0.16438006497158456,0.16463461673729016,0.16684408119533903,0.17300899304518844,0.18451567752733827,0.202114034032252,0.22545700782648037,0.25313929382809386,0.2829572015416813,0.3121156720543374,0.3385859993174112,0.36093098553447717,0.378792941029092,0.39290541003817425,0.40446034091607874,0.4157901342088359,0.4286590535863896,0.4440985788851215,0.4620856830440148,0.4810606632312368,0.4996927865819443,0.5156129960041476,0.5266187968910274,0.5312659560498555,0.5287389314587552,0.5207946621126979,0.5091581097678602,0.4959151190791374,0.4830129639216937,0.47136240852757,0.46194262091021326,0.45396737399207754,0.4456670466818467,0.43475997179353193,0.41874455190754306,0.39652473774526426,0.36775885058434843,0.3333863480249803,0.29552928299406445,0.2568491802555308,0.22096291350486175,0.1909197542516716,0.16898550419924815,0.15629859419459693,0.1524810718988263,0.15658416511647105,0.1665706858778935,0.17996529986731213,0.19429394441641812,0.20707606188077285,0.21735567519198937,0.2246857707648703,0.22938080091844565,0.23228929463823933,0.23395055266287051,0.23594863467479013,0.2392025599853663,0.24417625519255196,0.25075942967936066,0.2575671034027303,0.26415629892758247,0.2692353481043799,0.27138500072747834,0.26922956472048204,0.26080408578772174,0.24638420979913314,0.22626044084455868,0.20154019354113356,0.17409258546092932,0.14606316480073642,0.12051872020201539,0.09979541263276362,0.08562559404337897,0.07895560620137664,0.08017723839052573,0.08854796722217917,0.1022724737782558,0.119057405266691,0.1366044419274321,0.15287181378638587,0.1670803721255325,0.17867786839285738,0.18763821777241818,0.19425327765348754,0.1982393141925808,0.2006483928424439,0.20171178168810086,0.20153136888973575,0.2002462850546455,0.19779397437714563,0.19555017701284294,0.19495965658047698,0.19786901975018678,0.20623929245580344,0.22146322526871157,0.24471000691305464,0.27574589965466295,0.31300041145687557,0.3536976622881284,0.39381070584311656,0.43036049531705933,0.4608093390266398,0.4841332756759538,0.5011560321204533,0.513676203354588,0.5262225423890889,0.5430156523248467,0.5672627912001222,0.5998842695236052,0.637858532867995,0.676112287507771,0.7059973357477426,0.7170220364276552,0.698612506926757,0.6415152245584751,0.5418888265815683,0.4009254598957397,0.2260269007560329,0.030364744981141008,-0.1691711066057648,-0.3525888504140644,-0.5010714109963947,-0.5993323196258032,-0.6378830169644749,-0.6148143473598925,-0.5346436756631304,-0.40845714558736274,-0.2517644890215197,0.0,0.0,0.0,0.0,0.0,0.0,0.0,0.0,0.0,0.0,0.0,0.0,0.0,0.0,0.0,0.0,0.0,0.0,0.0,0.0,0.0,0.0,0.0,0.0,0.0,0.0,0.0,0.0,0.0,0.0,0.0,0.0,0.0,0.0,0.0,0.0,0.0,0.0,0.0,0.0,0.0,0.0,0.0,0.0,0.0,0.0,0.0,0.0,0.0,0.0,0.0,0.0,0.0,0.0,0.0,0.0,0.0,0.0,0.0,0.0,0.0,0.0,0.0,0.0,0.0,0.0,0.0,0.0,0.0,0.0,0.0,0.0,0.0,0.0,0.0,0.0,0.0,0.0,0.0,0.0,0.0,0.0,0.0,0.0,0.0,0.0,0.0,0.0,0.0,0.0,0.0,0.0,0.0,0.0,0.0,0.0,0.0,0.0,0.0,0.0,0.0,0.0,0.0,0.0,0.0,0.0,0.0,0.0,0.0,0.0,0.0,0.0,0.0,0.0,0.0,0.0,0.0,0.0,0.0,0.0,0.0,0.0,0.0,0.0,0.0,0.0,0.0,0.0,0.0,0.0,0.0,0.0,0.0,0.0,0.0,0.0,0.0,0.0,0.0,0.0,0.0
0.5262225423890889,0.5430156523248467,0.5672627912001222,0.5998842695236052,0.637858532867995,0.676112287507771,0.7059973357477426,0.7170220364276552,0.698612506926757,0.6415152245584751,0.5418888265815683,0.4009254598957397,0.2260269007560329,0.030364744981141008,-0.1691711066057648,-0.3525888504140644,-0.5010714109963947,-0.5993323196258032,-0.6378830169644749,-0.6148143473598925,-0.5346436756631304,-0.40845714558736274,-0.2517644890215197,-0.08213449978269888,0.08285587978592572,0.22900360564284153,0.34587012687849306,0.4277640570758885,0.47361401739907727,0.48585602034191117,0.4704915299804517,0.4347971799583908,0.38658602507645684,0.333405731278962,0.2817962917252849,0.23784345409784577,0.20626020440902962,0.1906046157180898,0.19319744515884668,0.21484649239278153,0.2550845510702794,0.3114692043190037,0.3798208385701945,0.4545339338451271,0.528896287251992,0.5968747122245547,0.6529035101297305,0.6931049556958977,0.7158704225314075,0.7215878212334339,0.7138275651436238,0.6969351426857466,0.6756558543548249,0.6542006384632455,0.6349763045122468,0.6200410986945734,0.609095993750958,0.6006122300771207,0.5925308543950835,0.5823478849160814,0.5698250049590727,0.5548053139802949,0.5379440945068233,0.5204039990984498,0.5032165720078606,0.4874218215399112,0.4733213395710001,0.460553820568183,0.44827714380181616,0.43575870571200165,0.42171534525795523,0.40604411122306894,0.3892665366747815,0.3722664371605417,0.3558150783635316,0.34042724080065717,0.3260086277144822,0.3117557881293934,0.2962557305192673,0.2773499183320619,0.25406927405551005,0.22546592451320455,0.19158781329677352,0.15373283041193087,0.11409457840557828,0.07653831598780939,0.04481594747713881,0.022273469184844935,0.011209930304594442,0.012200714928849355,0.02464965523252899,0.04619225924428106,0.07341086927631237,0.10250885301475751,0.1296191737364132,0.152828879422779,0.17096784546323615,0.18420050908440633,0.19380777572492056,0.20112374958461746,0.20907766010257378,0.2192604575067798,0.23235659235928205,0.24801965082973254,0.26434216557006907,0.28019621527993754,0.2932722943668571,0.3012532517859239,0.3022315259345445,0.29442743299364715,0.27847806544996423,0.25527178942100703,0.22660386710756952,0.19498910950795065,0.16279361215323773,0.13372463516414632,0.11042720462676076,0.0947916471990949,0.08774669308135676,0.08869521706446852,0.09727863150926061,0.1118211808681159,0.13019386428394322,0.15013848498002552,0.16915127363444737,0.18598667786237472,0.19934187174472354,0.20834118655823647,0.2125302768786943,0.21156776248859616,0.20614858228040586,0.19692778420183044,0.184854611059203,0.17115834965235213,0.1568871040852648,0.14407194994293204,0.1344092710936082,0.12933944137451742,0.12978642242600993,0.1354234517981831,0.1461963209473527,0.16116413657996448,0.17894647277838868,0.19791685882055413,0.21593698868617112,0.2321417067180422,0.24585592257658367,0.25700716846890626,0.2660472952150983,0.2732941863661424,0.2801661309498337,0.2875910100267054,0.2961604849863837,0.3059684518183737,0.3161667005691768,0.326315474792743,0.335334506315891,0.34213637213712855,0.345889608421649,0.0,0.0,0.0,0.0,0.0,0.0,0.0,0.0,0.0,0.0,0.0,0.0,0.0,0.0,0.0,0.0,0.0,0.0,0.0,0.0,0.0,0.0,0.0,0.0,0.0,0.0,0.0,0.0,0.0,0.0,0.0,0.0,0.0,0.0,0.0,0.0,0.0,0.0,0.0,0.0,0.0,0.0,0.0,0.0,0.0,0.0,0.0,0.0,0.0,0.0,0.0,0.0,0.0,0.0,0.0,0.0,0.0,0.0,0.0,0.0,0.0,0.0,0.0,0.0,0.0,0.0,0.0,0.0,0.0,0.0,0.0,0.0,0.0,0.0,0.0,0.0,0.0,0.0,0.0,0.0,0.0,0.0,0.0,0.0,0.0,0.0,0.0,0.0,0.0,0.0,0.0,0.0,0.0,0.0,0.0,0.0,0.0,0.0,0.0,0.0,0.0,0.0,0.0,0.0,0.0,0.0,0.0,0.0,0.0,0.0,0.0,0.0,0.0,0.0,0.0,0.0,0.0,0.0,0.0,0.0,0.0,0.0,0.0,0.0,0.0,0.0,0.0,0.0,0.0,0.0,0.0,0.0,0.0,0.0,0.0,0.0,0.0,0.0,0.0,0.0,0.0
0.5442218533561038,0.5786984810096875,0.5967200635603297,0.5980993940716527,0.5856097696634277,0.5631325676755106,0.5352714757819456,0.5064844999967242,0.47978859626390363,0.45773885294764044,0.4407820357893579,0.42774782735990485,0.41624893643311883,0.40284086078061987,0.3852852690341133,0.36181242262129465,0.33207669686392355,0.2973945776919071,0.26026106826731266,0.2252585226523538,0.19710757895678405,0.1803368501477388,0.17854021895069527,0.19343229612756818,0.2255218130351194,0.27278536941019094,0.331272745494957,0.39561881571394175,0.459421588093511,0.5172175512130808,0.564026969647345,0.5963805536825613,0.6126974124771882,0.6129771371810173,0.5997898391944269,0.5765265797776262,0.5471881760199985,0.5157727536195809,0.48553554331680104,0.4594384629773466,0.4391992470345001,0.42563383246532627,0.4188480947619735,0.4183608907446731,0.4235857232473768,0.4335065788837289,0.4468360112815674,0.46202346516013404,0.4769991831190053,0.49035631565418086,0.5003485429715369,0.5055654525505462,0.5051988355582946,0.4986925402067907,0.4875465414914049,0.4731391308204578,0.4571195270610225,0.4410739600510737,0.425767753070673,0.41233069459186256,0.4004826063512506,0.38918743897129077,0.37694908454385273,0.36189664142392064,0.34330438343163683,0.3206237312004158,0.29413588249693773,0.2650015062200189,0.23477479652600947,0.2062522621796987,0.18187302198839878,0.16369331655082342,0.15305392789618508,0.1500012841251047,0.15443614940939782,0.16512112170645876,0.1802091051384312,0.19749319662384013,0.21426582029628138,0.22884565059410894,0.23930076096532585,0.2440426530731627,0.2419324653514952,0.23196755435817928,0.21480104311429918,0.19104257223086876,0.16196140364618986,0.12954745514881438,0.09590480446672786,0.06487342401561891,0.03968602466837403,0.023142230680367044,0.01716244494613357,0.021749875534540854,0.037080494098271355,0.06141587157819682,0.09202959620688496,0.12561511196548852,0.1581836731247968,0.18732708042591809,0.21062835431371488,0.22646223302535567,0.2340677789848435,0.2330900712194751,0.22491128787460699,0.21084977710150316,0.19259614199343011,0.17212624410667077,0.15126984390608791,0.13275309009552724,0.11865635096148722,0.11071723997453777,0.11018470922849802,0.11743475863643849,0.13276410696971433,0.15524372313117613,0.18315093644062322,0.21412572288345752,0.24506604824268996,0.2734715069277075,0.2965969831896456,0.3120595313977837,0.318066736538417,0.31319679138823836,0.2978024597719752,0.2729522464005018,0.2407311740759174,0.20412035166702228,0.16658990207692734,0.13248567760521618,0.10596053466400722,0.09083081261857966,0.0901739667956275,0.1059275879775612,0.13858917708779736,0.1866355798543969,0.2466405829405438,0.3135244487914885,0.3808878381376516,0.44234033859873495,0.49174804867343874,0.5242405569022747,0.5368749307873494,0.528648954570076,0.5016631790145377,0.45991893501577896,0.40885046754371024,0.3544065366766079,0.30173553165704514,0.25548037652855937,0.21826434350237578,0.19077783507252066,0.17193814256586634,0.15901521710142927,0.14939306279313017,0.14020360472998733,0.1293110967408733,0.11576675634972161,0.09959885633378196,0.0,0.0,0.0,0.0,0.0,0.0,0.0,0.0,0.0,0.0,0.0,0.0,0.0,0.0,0.0,0.0,0.0,0.0,0.0,0.0,0.0,0.0,0.0,0.0,0.0,0.0,0.0,0.0,0.0,0.0,0.0,0.0,0.0,0.0,0.0,0.0,0.0,0.0,0.0,0.0,0.0,0.0,0.0,0.0,0.0,0.0,0.0,0.0,0.0,0.0,0.0,0.0,0.0,0.0,0.0,0.0,0.0,0.0,0.0,0.0,0.0,0.0,0.0,0.0,0.0,0.0,0.0,0.0,0.0,0.0,0.0,0.0,0.0,0.0,0.0,0.0,0.0,0.0,0.0,0.0,0.0,0.0,0.0,0.0,0.0,0.0,0.0,0.0,0.0,0.0,0.0,0.0,0.0,0.0,0.0,0.0,0.0,0.0,0.0,0.0,0.0,0.0,0.0,0.0,0.0,0.0,0.0,0.0,0.0,0.0,0.0,0.0,0.0,0.0,0.0,0.0,0.0,0.0,0.0,0.0,0.0,0.0,0.0,0.0,0.0,0.0,0.0,0.0,0.0,0.0,0.0,0.0,0.0,0.0,0.0,0.0,0.0,0.0,0.0,0.0,0.0
0.49174804867343874,0.5242405569022747,0.5368749307873494,0.528648954570076,0.5016631790145377,0.45991893501577896,0.40885046754371024,0.3544065366766079,0.30173553165704514,0.25548037652855937,0.21826434350237578,0.19077783507252066,0.17193814256586634,0.15901521710142927,0.14939306279313017,0.14020360472998733,0.1293110967408733,0.11576675634972161,0.09959885633378196,0.08296422689691527,0.06865408979103448,0.0598720718033981,0.05959537013357686,0.06951811273650409,0.09099564645610163,0.12360048893315018,0.1653745561057825,0.21293815836586594,0.26126541184332214,0.3057034833584139,0.34104900882322686,0.3625169943904423,0.36628094659815497,0.34941603577299535,0.3121016487302316,0.2561846795875416,0.18573121258442007,0.10678179973255839,0.026338291634986032,-0.04697844992984681,-0.10525406314501841,-0.14192923418223866,-0.15271734713303825,-0.13660645897922832,-0.09491952602923207,-0.03204686496813886,0.0454463623954738,0.1297214009384606,0.21228686744312483,0.28636353218443894,0.3463271492254717,0.3886654698491041,0.4121601490099594,0.41727983146876785,0.40733101828885543,0.38610549874417044,0.35789362234658056,0.3269825748706694,0.2970082874597844,0.2715792934609017,0.25306096830437025,0.24292279109154338,0.24180500073137942,0.24955224354808087,0.26550580903981436,0.28820554580914165,0.3156235811543976,0.34532925745710585,0.3746232728042175,0.4012065734918985,0.42310432916745944,0.4390882851591554,0.4488535141828322,0.4528584235568584,0.45263943705564325,0.4500081019315473,0.44673826094379493,0.44415118604310083,0.44268096671688933,0.4423860285044815,0.44245704359914984,0.44179823384663924,0.43944885790336946,0.43476481963742625,0.42820376579094255,0.4203760210465932,0.4121422532668516,0.40431305819611735,0.3971761081547049,0.3908709341501047,0.38480496654155366,0.3779613866014422,0.36917725848886523,0.35728456787367113,0.3419158228457648,0.3234380880732387,0.3028862000663629,0.28166995411605744,0.260953897135306,0.24194608791779307,0.22494150929263237,0.2094208515067498,0.19416264974324965,0.17731366998731307,0.15769096773665522,0.1341353269631956,0.10633146320535072,0.07508633371004965,0.042015994312199066,0.010440165914883063,-0.016336114642820435,-0.03523368016330702,-0.043989982323150364,-0.04205043869785414,-0.029346971312119437,-0.007570245406274565,0.0205375091998151,0.051633494932407153,0.08186968881416062,0.10863137239486208,0.1294593096057255,0.14264374092224144,0.14725697218796463,0.14276079782690884,0.1301288735209958,0.11038691662651247,0.08509689421395951,0.05639733498556664,0.026656221278456665,-0.0004619489503007115,-0.02164191390110862,-0.03379648894567395,-0.034462302216831366,-0.022526028214914368,0.00263981580740727,0.03965031203455404,0.08565363220100529,0.13663931079970407,0.18752448112923717,0.23400694150969453,0.27168375726954996,0.2970205882554501,0.30774092381623946,0.3026240597685751,0.2829895124066737,0.25109348968463396,0.21035996227506343,0.1650380282086195,0.11945760769410817,0.0786705616672507,0.04687294375300904,0.02738173141009792,0.022335132600999535,0.032265151827170144,0.0567603951916591,0.09372205399153301,0.13979166433113038,0.1906662424305914,0.2413923064647974,0.0,0.0,0.0,0.0,0.0,0.0,0.0,0.0,0.0,0.0,0.0,0.0,0.0,0.0,0.0,0.0,0.0,0.0,0.0,0.0,0.0,0.0,0.0,0.0,0.0,0.0,0.0,0.0,0.0,0.0,0.0,0.0,0.0,0.0,0.0,0.0,0.0,0.0,0.0,0.0,0.0,0.0,0.0,0.0,0.0,0.0,0.0,0.0,0.0,0.0,0.0,0.0,0.0,0.0,0.0,0.0,0.0,0.0,0.0,0.0,0.0,0.0,0.0,0.0,0.0,0.0,0.0,0.0,0.0,0.0,0.0,0.0,0.0,0.0,0.0,0.0,0.0,0.0,0.0,0.0,0.0,0.0,0.0,0.0,0.0,0.0,0.0,0.0,0.0,0.0,0.0,0.0,0.0,0.0,0.0,0.0,0.0,0.0,0.0,0.0,0.0,0.0,0.0,0.0,0.0,0.0,0.0,0.0,0.0,0.0,0.0,0.0,0.0,0.0,0.0,0.0,0.0,0.0,0.0,0.0,0.0,0.0,0.0,0.0,0.0,0.0,0.0,0.0,0.0,0.0,0.0,0.0,0.0,0.0,0.0,0.0,0.0,0.0,0.0,0.0,0.0
0.3886654698491041,0.4121601490099594,0.41727983146876785,0.40733101828885543,0.38610549874417044,0.35789362234658056,0.3269825748706694,0.2970082874597844,0.2715792934609017,0.25306096830437025,0.24292279109154338,0.24180500073137942,0.24955224354808087,0.26550580903981436,0.28820554580914165,0.3156235811543976,0.34532925745710585,0.3746232728042175,0.4012065734918985,0.42310432916745944,0.4390882851591554,0.4488535141828322,0.4528584235568584,0.45263943705564325,0.4500081019315473,0.44673826094379493,0.44415118604310083,0.44268096671688933,0.4423860285044815,0.44245704359914984,0.44179823384663924,0.43944885790336946,0.43476481963742625,0.42820376579094255,0.4203760210465932,0.4121422532668516,0.40431305819611735,0.3971761081547049,0.3908709341501047,0.38480496654155366,0.3779613866014422,0.36917725848886523,0.35728456787367113,0.3419158228457648,0.3234380880732387,0.3028862000663629,0.28166995411605744,0.260953897135306,0.24194608791779307,0.22494150929263237,0.2094208515067498,0.19416264974324965,0.17731366998731307,0.15769096773665522,0.1341353269631956,0.10633146320535072,0.07508633371004965,0.042015994312199066,0.010440165914883063,-0.016336114642820435,-0.03523368016330702,-0.043989982323150364,-0.04205043869785414,-0.029346971312119437,-0.007570245406274565,0.0205375091998151,0.051633494932407153,0.08186968881416062,0.10863137239486208,0.1294593096057255,0.14264374092224144,0.14725697218796463,0.14276079782690884,0.1301288735209958,0.11038691662651247,0.08509689421395951,0.05639733498556664,0.026656221278456665,-0.0004619489503007115,-0.02164191390110862,-0.03379648894567395,-0.034462302216831366,-0.022526028214914368,0.00263981580740727,0.03965031203455404,0.08565363220100529,0.13663931079970407,0.18752448112923717,0.23400694150969453,0.27168375726954996,0.2970205882554501,0.30774092381623946,0.3026240597685751,0.2829895124066737,0.25109348968463396,0.21035996227506343,0.1650380282086195,0.11945760769410817,0.0786705616672507,0.04687294375300904,0.02738173141009792,0.022335132600999535,0.032265151827170144,0.0567603951916591,0.09372205399153301,0.13979166433113038,0.1906662424305914,0.2413923064647974,0.2873001674102954,0.32412923143910527,0.34864103902641647,0.35899735226018326,0.35491939407902384,0.337777248430963,0.3103178009658358,0.2762198930118521,0.23952906972367422,0.20372033473926834,0.1722603946937201,0.14737254289417814,0.13005636660836306,0.12006078718716515,0.11539577988626154,0.11471937622965353,0.11608124552984873,0.11779400069102994,0.11872208742385351,0.11802457476948112,0.11635927395052129,0.11476019532353444,0.11462641122868684,0.11738338766054182,0.12401747733847086,0.1352032376554042,0.15089531941393478,0.17033497077816595,0.19210923898886406,0.2141123293393272,0.23444658080179387,0.25106112756917137,0.2622378918936824,0.26683509031718633,0.26418343859461274,0.25507534165391943,0.24067264786722534,0.2227051918396734,0.20323750001387397,0.18406600089650474,0.16731870098988297,0.15423609921591053,0.14519978307550194,0.13963990971056148,0.13581745065196454,0.13208968207643146,0.1266241415465786,0.11810496466946653,0.10619409751715665,0.09140916258276173,0.07661815051280016,0.0,0.0,0.0,0.0,0.0,0.0,0.0,0.0,0.0,0.0,0.0,0.0,0.0,0.0,0.0,0.0,0.0,0.0,0.0,0.0,0.0,0.0,0.0,0.0,0.0,0.0,0.0,0.0,0.0,0.0,0.0,0.0,0.0,0.0,0.0,0.0,0.0,0.0,0.0,0.0,0.0,0.0,0.0,0.0,0.0,0.0,0.0,0.0,0.0,0.0,0.0,0.0,0.0,0.0,0.0,0.0,0.0,0.0,0.0,0.0,0.0,0.0,0.0,0.0,0.0,0.0,0.0,0.0,0.0,0.0,0.0,0.0,0.0,0.0,0.0,0.0,0.0,0.0,0.0,0.0,0.0,0.0,0.0,0.0,0.0,0.0,0.0,0.0,0.0,0.0,0.0,0.0,0.0,0.0,0.0,0.0,0.0,0.0,0.0,0.0,0.0,0.0,0.0,0.0,0.0,0.0,0.0,0.0,0.0,0.0,0.0,0.0,0.0,0.0,0.0,0.0,0.0,0.0,0.0,0.0,0.0,0.0,0.0,0.0,0.0,0.0,0.0,0.0,0.0,0.0,0.0,0.0,0.0,0.0,0.0,0.0,0.0,0.0,0.0,0.0,0.0
0.3026240597685751,0.2829895124066737,0.25109348968463396,0.21035996227506343,0.1650380282086195,0.11945760769410817,0.0786705616672507,0.04687294375300904,0.02738173141009792,0.022335132600999535,0.032265151827170144,0.0567603951916591,0.09372205399153301,0.13979166433113038,0.1906662424305914,0.2413923064647974,0.2873001674102954,0.32412923143910527,0.34864103902641647,0.35899735226018326,0.35491939407902384,0.337777248430963,0.3103178009658358,0.2762198930118521,0.23952906972367422,0.20372033473926834,0.1722603946937201,0.14737254289417814,0.13005636660836306,0.12006078718716515,0.11539577988626154,0.11471937622965353,0.11608124552984873,0.11779400069102994,0.11872208742385351,0.11802457476948112,0.11635927395052129,0.11476019532353444,0.11462641122868684,0.11738338766054182,0.12401747733847086,0.1352032376554042,0.15089531941393478,0.17033497077816595,0.19210923898886406,0.2141123293393272,0.23444658080179387,0.25106112756917137,0.2622378918936824,0.26683509031718633,0.26418343859461274,0.25507534165391943,0.24067264786722534,0.2227051918396734,0.20323750001387397,0.18406600089650474,0.16731870098988297,0.15423609921591053,0.14519978307550194,0.13963990971056148,0.13581745065196454,0.13208968207643146,0.1266241415465786,0.11810496466946653,0.10619409751715665,0.09140916258276173,0.07661815051280016,0.0655773503955891,0.06279160832876217,0.07274828532375177,0.0984571815008106,0.1424376646089725,0.20429117129145768,0.28095307580435336,0.36683190471978167,0.45398059106713884,0.5343596007099894,0.5997604451177297,0.643393980310277,0.6609155241158116,0.6508303494993922,0.6154378366624328,0.5597355676980523,0.490795799515256,0.416614967906365,0.3445868400166842,0.2812720114661529,0.23080630168909355,0.194773650335288,0.1723144116969184,0.16033745623558887,0.15531726323405037,0.15334530653331355,0.1512107811749473,0.1469849032248346,0.14009883040184984,0.13184480761785375,0.12432827886425578,0.12012369249220772,0.12165539475275079,0.13060157975125591,0.14770179606257847,0.17214275904543527,0.20189052213752065,0.23410520242891555,0.2656222940988814,0.2939173560794083,0.3171162379138501,0.33449681978471907,0.34655501010508033,0.3546391903680579,0.36101632408815987,0.36776094211544474,0.37637266076460213,0.38736775106381977,0.4000111693606618,0.41277244599161655,0.42331332062431226,0.42914207156437495,0.4281804920225592,0.4191793973332279,0.4021540410392138,0.378182192253776,0.34926651324590025,0.3179724260140953,0.2866548983698316,0.2582986590561098,0.23491732101614785,0.2178525530882869,0.20776436000563145,0.20402762466535995,0.20707706422837047,0.2160384707709142,0.22957852211650082,0.2459439416846133,0.26260468199057885,0.27755427218774964,0.28799202432717713,0.29103929837941467,0.2841235233635952,0.265355617403199,0.23423945565954532,0.1915699606742947,0.13969671318300358,0.08239103427330507,0.024308871852843805,-0.029164211959782273,-0.07317287928826267,-0.103943468524802,-0.11934145481698502,-0.11935862424941623,-0.10541937019354342,-0.0806502371049652,-0.04910488478490356,-0.015080485718172327,0.017286191373747886,0.045285745979555335,0.06700908686405711,0.08162325331851199,0.0,0.0,0.0,0.0,0.0,0.0,0.0,0.0,0.0,0.0,0.0,0.0,0.0,0.0,0.0,0.0,0.0,0.0,0.0,0.0,0.0,0.0,0.0,0.0,0.0,0.0,0.0,0.0,0.0,0.0,0.0,0.0,0.0,0.0,0.0,0.0,0.0,0.0,0.0,0.0,0.0,0.0,0.0,0.0,0.0,0.0,0.0,0.0,0.0,0.0,0.0,0.0,0.0,0.0,0.0,0.0,0.0,0.0,0.0,0.0,0.0,0.0,0.0,0.0,0.0,0.0,0.0,0.0,0.0,0.0,0.0,0.0,0.0,0.0,0.0,0.0,0.0,0.0,0.0,0.0,0.0,0.0,0.0,0.0,0.0,0.0,0.0,0.0,0.0,0.0,0.0,0.0,0.0,0.0,0.0,0.0,0.0,0.0,0.0,0.0,0.0,0.0,0.0,0.0,0.0,0.0,0.0,0.0,0.0,0.0,0.0,0.0,0.0,0.0,0.0,0.0,0.0,0.0,0.0,0.0,0.0,0.0,0.0,0.0,0.0,0.0,0.0,0.0,0.0,0.0,0.0,0.0,0.0,0.0,0.0,0.0,0.0,0.0,0.0,0.0,0.0
0.5997604451177297,0.643393980310277,0.6609155241158116,0.6508303494993922,0.6154378366624328,0.5597355676980523,0.490795799515256,0.416614967906365,0.3445868400166842,0.2812720114661529,0.23080630168909355,0.194773650335288,0.1723144116969184,0.16033745623558887,0.15531726323405037,0.15334530653331355,0.1512107811749473,0.1469849032248346,0.14009883040184984,0.13184480761785375,0.12432827886425578,0.12012369249220772,0.12165539475275079,0.13060157975125591,0.14770179606257847,0.17214275904543527,0.20189052213752065,0.23410520242891555,0.2656222940988814,0.2939173560794083,0.3171162379138501,0.33449681978471907,0.34655501010508033,0.3546391903680579,0.36101632408815987,0.36776094211544474,0.37637266076460213,0.38736775106381977,0.4000111693606618,0.41277244599161655,0.42331332062431226,0.42914207156437495,0.4281804920225592,0.4191793973332279,0.4021540410392138,0.378182192253776,0.34926651324590025,0.3179724260140953,0.2866548983698316,0.2582986590561098,0.23491732101614785,0.2178525530882869,0.20776436000563145,0.20402762466535995,0.20707706422837047,0.2160384707709142,0.22957852211650082,0.2459439416846133,0.26260468199057885,0.27755427218774964,0.28799202432717713,0.29103929837941467,0.2841235233635952,0.265355617403199,0.23423945565954532,0.1915699606742947,0.13969671318300358,0.08239103427330507,0.024308871852843805,-0.029164211959782273,-0.07317287928826267,-0.103943468524802,-0.11934145481698502,-0.11935862424941623,-0.10541937019354342,-0.0806502371049652,-0.04910488478490356,-0.015080485718172327,0.017286191373747886,0.045285745979555335,0.06700908686405711,0.08162325331851199,0.08918048338064036,0.0900570623435369,0.08560283494051181,0.0768502720199272,0.06484695066328866,0.05075937339712822,0.035796969279553996,0.022196735387813193,0.012153653117341482,0.008078783074461637,0.012338263413616084,0.026658157100311115,0.05245797423077913,0.08938849524962414,0.1355197852605202,0.18741019854692226,0.24019974662030144,0.28896394359229566,0.32842039084378094,0.3539925089372979,0.3624821336802284,0.3522980182497801,0.32452120673431284,0.28194128448393,0.2289567480527414,0.1709809424613086,0.11344654559260592,0.062009792343648916,0.020953758026306137,-0.006927896504096518,-0.020520248757611204,-0.02064191879674707,-0.008793385353125018,0.012151325929261167,0.03875686912404048,0.06749780958873913,0.09496137061651053,0.11878300903618437,0.1372485880972631,0.1495077617521683,0.15551586793508945,0.1557927658277375,0.15150341185861893,0.1441711112834048,0.13540245596693348,0.12661700212009905,0.11884036929651864,0.11247922245652335,0.10735829413369054,0.10278104129542757,0.09771813630510867,0.09121661413798803,0.08225825961631579,0.07023079715157995,0.055113238209542066,0.03760742067386155,0.018929693313522046,0.0013023224160780091,-0.012893951960541928,-0.021393832129985402,-0.022503294957385577,-0.016043610869491395,-0.001840411663581862,0.01898647651239279,0.04451343297648153,0.07228745311877632,0.09915692278792435,0.12329652295505529,0.14308086163347455,0.15768121809609886,0.16707820119493824,0.17144301084508,0.17248129478701257,0.17155131544851152,0.16989908712821983,0.16845980272095368,0.16742158092572604,0.0,0.0,0.0,0.0,0.0,0.0,0.0,0.0,0.0,0.0,0.0,0.0,0.0,0.0,0.0,0.0,0.0,0.0,0.0,0.0,0.0,0.0,0.0,0.0,0.0,0.0,0.0,0.0,0.0,0.0,0.0,0.0,0.0,0.0,0.0,0.0,0.0,0.0,0.0,0.0,0.0,0.0,0.0,0.0,0.0,0.0,0.0,0.0,0.0,0.0,0.0,0.0,0.0,0.0,0.0,0.0,0.0,0.0,0.0,0.0,0.0,0.0,0.0,0.0,0.0,0.0,0.0,0.0,0.0,0.0,0.0,0.0,0.0,0.0,0.0,0.0,0.0,0.0,0.0,0.0,0.0,0.0,0.0,0.0,0.0,0.0,0.0,0.0,0.0,0.0,0.0,0.0,0.0,0.0,0.0,0.0,0.0,0.0,0.0,0.0,0.0,0.0,0.0,0.0,0.0,0.0,0.0,0.0,0.0,0.0,0.0,0.0,0.0,0.0,0.0,0.0,0.0,0.0,0.0,0.0,0.0,0.0,0.0,0.0,0.0,0.0,0.0,0.0,0.0,0.0,0.0,0.0,0.0,0.0,0.0,0.0,0.0,0.0,0.0,0.0,0.0
-0.11935862424941623,-0.10541937019354342,-0.0806502371049652,-0.04910488478490356,-0.015080485718172327,0.017286191373747886,0.045285745979555335,0.06700908686405711,0.08162325331851199,0.08918048338064036,0.0900570623435369,0.08560283494051181,0.0768502720199272,0.06484695066328866,0.05075937339712822,0.035796969279553996,0.022196735387813193,0.012153653117341482,0.008078783074461637,0.012338263413616084,0.026658157100311115,0.05245797423077913,0.08938849524962414,0.1355197852605202,0.18741019854692226,0.24019974662030144,0.28896394359229566,0.32842039084378094,0.3539925089372979,0.3624821336802284,0.3522980182497801,0.32452120673431284,0.28194128448393,0.2289567480527414,0.1709809424613086,0.11344654559260592,0.062009792343648916,0.020953758026306137,-0.006927896504096518,-0.020520248757611204,-0.02064191879674707,-0.008793385353125018,0.012151325929261167,0.03875686912404048,0.06749780958873913,0.09496137061651053,0.11878300903618437,0.1372485880972631,0.1495077617521683,0.15551586793508945,0.1557927658277375,0.15150341185861893,0.1441711112834048,0.13540245596693348,0.12661700212009905,0.11884036929651864,0.11247922245652335,0.10735829413369054,0.10278104129542757,0.09771813630510867,0.09121661413798803,0.08225825961631579,0.07023079715157995,0.055113238209542066,0.03760742067386155,0.018929693313522046,0.0013023224160780091,-0.012893951960541928,-0.021393832129985402,-0.022503294957385577,-0.016043610869491395,-0.001840411663581862,0.01898647651239279,0.04451343297648153,0.07228745311877632,0.09915692278792435,0.12329652295505529,0.14308086163347455,0.15768121809609886,0.16707820119493824,0.17144301084508,0.17248129478701257,0.17155131544851152,0.16989908712821983,0.16845980272095368,0.16742158092572604,0.1672511540131137,0.16780549531100433,0.16877119775209942,0.16984140424696914,0.17070451284882407,0.17162055339700963,0.17305054910287765,0.17556888255075156,0.1795756520293812,0.18473091618486284,0.19039242069610854,0.1948455865111819,0.1955263534636426,0.18930989981179322,0.1727370664118816,0.14366901025931486,0.1011338419321788,0.04621270315425694,-0.01762169970117168,-0.08493416106194696,-0.14768943931247286,-0.19719334822611317,-0.22505570333270314,-0.2245532992141366,-0.19228909144947112,-0.12769463500219952,-0.034446116063202324,0.08014349712646981,0.20599533926050903,0.33118989639058344,0.4447391328124178,0.5371790911555112,0.6020394170922296,0.6365439777351546,0.6413434208863759,0.621084431581114,0.5826476122784887,0.5340267600886789,0.4829425116052148,0.43540363075704386,0.3956962634436987,0.36545455978035174,0.3440761844147061,0.32934104547527493,0.31810891427449905,0.3076459955045752,0.2957673197534388,0.28143136643850547,0.26482844850604265,0.24699509602785505,0.22996761780048902,0.2156416593776517,0.20550551837320258,0.2003158515368104,0.19976280597387927,0.20322972776451703,0.209331483010144,0.21648968685000627,0.22331289872344204,0.22875649354412123,0.2328911093981362,0.23632091950332304,0.24026922985408464,0.24630994591007363,0.2558673228197205,0.27024869324688144,0.2897497566468389,0.3136608901786335,0.34031132607677816,0.3673476967259632,0.39214801908026115,0.41240188745001083,0.42658949534160967,0.0,0.0,0.0,0.0,0.0,0.0,0.0,0.0,0.0,0.0,0.0,0.0,0.0,0.0,0.0,0.0,0.0,0.0,0.0,0.0,0.0,0.0,0.0,0.0,0.0,0.0,0.0,0.0,0.0,0.0,0.0,0.0,0.0,0.0,0.0,0.0,0.0,0.0,0.0,0.0,0.0,0.0,0.0,0.0,0.0,0.0,0.0,0.0,0.0,0.0,0.0,0.0,0.0,0.0,0.0,0.0,0.0,0.0,0.0,0.0,0.0,0.0,0.0,0.0,0.0,0.0,0.0,0.0,0.0,0.0,0.0,0.0,0.0,0.0,0.0,0.0,0.0,0.0,0.0,0.0,0.0,0.0,0.0,0.0,0.0,0.0,0.0,0.0,0.0,0.0,0.0,0.0,0.0,0.0,0.0,0.0,0.0,0.0,0.0,0.0,0.0,0.0,0.0,0.0,0.0,0.0,0.0,0.0,0.0,0.0,0.0,0.0,0.0,0.0,0.0,0.0,0.0,0.0,0.0,0.0,0.0,0.0,0.0,0.0,0.0,0.0,0.0,0.0,0.0,0.0,0.0,0.0,0.0,0.0,0.0,0.0,0.0,0.0,0.0,0.0,0.0
-0.22505570333270314,-0.2245532992141366,-0.19228909144947112,-0.12769463500219952,-0.034446116063202324,0.08014349712646981,0.20599533926050903,0.33118989639058344,0.4447391328124178,0.5371790911555112,0.6020394170922296,0.6365439777351546,0.6413434208863759,0.621084431581114,0.5826476122784887,0.5340267600886789,0.4829425116052148,0.43540363075704386,0.3956962634436987,0.36545455978035174,0.3440761844147061,0.32934104547527493,0.31810891427449905,0.3076459955045752,0.2957673197534388,0.28143136643850547,0.26482844850604265,0.24699509602785505,0.22996761780048902,0.2156416593776517,0.20550551837320258,0.2003158515368104,0.19976280597387927,0.20322972776451703,0.209331483010144,0.21648968685000627,0.22331289872344204,0.22875649354412123,0.2328911093981362,0.23632091950332304,0.24026922985408464,0.24630994591007363,0.2558673228197205,0.27024869324688144,0.2897497566468389,0.3136608901786335,0.34031132607677816,0.3673476967259632,0.39214801908026115,0.41240188745001083,0.42658949534160967,0.4343127062434827,0.4364840515844216,0.4346631169917763,0.43116125324738463,0.42819152908777675,0.42722457210247883,0.4284196178490751,0.43087617495815683,0.4322985575057209,0.42970537002254894,0.42013643796147493,0.40103540571058394,0.37205829375284355,0.33371028294827026,0.2879608612537508,0.23801088758673017,0.18756737753459035,0.14117755788022415,0.10235102797393084,0.07353739561409975,0.055885337211985395,0.04904573428866497,0.051979213756258774,0.06239766887957437,0.07746886359767233,0.09425092214628367,0.10994003076198675,0.12267937367150285,0.13104116806490018,0.13434169603576773,0.13261650708058195,0.12639384312024862,0.11689294696331505,0.1052756331366337,0.09263214106853895,0.07984549540939201,0.06741048065556919,0.055878850970055925,0.04534387451040746,0.03576120373608578,0.02707448373820206,0.019174089771534227,0.012407073203746365,0.006905309990502571,0.0027641544956845164,0.0,0.0,0.0,0.0,0.0,0.0,0.0,0.0,0.0,0.0,0.0,0.0,0.0,0.0,0.0,0.0,0.0,0.0,0.0,0.0,0.0,0.0,0.0,0.0,0.0,0.0,0.0,0.0,0.0,0.0,0.0,0.0,0.0,0.0,0.0,0.0,0.0,0.0,0.0,0.0,0.0,0.0,0.0,0.0,0.0,0.0,0.0,0.0,0.0,0.0,0.0,0.0,0.0,0.0,0.0,0.0,0.0,0.0,0.0,0.0,0.0,0.0,0.0,0.0,0.0,0.0,0.0,0.0,0.0,0.0,0.0,0.0,0.0,0.0,0.0,0.0,0.0,0.0,0.0,0.0,0.0,0.0,0.0,0.0,0.0,0.0,0.0,0.0,0.0,0.0,0.0,0.0,0.0,0.0,0.0,0.0,0.0,0.0,0.0,0.0,0.0,0.0,0.0,0.0,0.0,0.0,0.0,0.0,0.0,0.0,0.0,0.0,0.0,0.0,0.0,0.0,0.0,0.0,0.0,0.0,0.0,0.0,0.0,0.0,0.0,0.0,0.0,0.0,0.0,0.0,0.0,0.0,0.0,0.0,0.0,0.0,0.0,0.0,0.0,0.0,0.0,0.0,0.0,0.0,0.0,0.0,0.0,0.0,0.0,0.0,0.0,0.0,0.0,0.0,0.0,0.0,0.0,0.0,0.0,0.0,0.0,0.0,0.0,0.0,0.0,0.0,0.0,0.0,0.0,0.0,0.0,0.0,0.0,0.0,0.0,0.0,0.0,0.0,0.0,0.0,0.0,0.0,0.0,0.0,0.0,0.0,0.0,0.0,0.0,0.0,0.0,0.0,0.0,0.0,0.0,0.0,0.0,0.0,0.0,0.0,0.0,0.0,0.0,0.0
0.051979213756258774,0.06239766887957437,0.07746886359767233,0.09425092214628367,0.10994003076198675,0.12267937367150285,0.13104116806490018,0.13434169603576773,0.13261650708058195,0.12639384312024862,0.11689294696331505,0.1052756331366337,0.09263214106853895,0.07984549540939201,0.06741048065556919,0.055878850970055925,0.04534387451040746,0.03576120373608578,0.02707448373820206,0.019174089771534227,0.012407073203746365,0.006905309990502571,0.0027641544956845164,0.0,0.0,0.0,0.0,0.0,0.0,0.0,0.0,0.0,0.0,0.0,0.0,0.0,0.0,0.0,0.0,0.0,0.0,0.0,0.0,0.0,0.0,0.0,0.0,0.0,0.0,0.0,0.0,0.0,0.0,0.0,0.0,0.0,0.0,0.0,0.0,0.0,0.0,0.0,0.0,0.0,0.0,0.0,0.0,0.0,0.0,0.0,0.0,0.0,0.0,0.0,0.0,0.0,0.0,0.0,0.0,0.0,0.0,0.0,0.0,0.0,0.0,0.0,0.0,0.0,0.0,0.0,0.0,0.0,0.0,0.0,0.0,0.0,0.0,0.0,0.0,0.0,0.0,0.0,0.0,0.0,0.0,0.0,0.0,0.0,0.0,0.0,0.0,0.0,0.0,0.0,0.0,0.0,0.0,0.0,0.0,0.0,0.0,0.0,0.0,0.0,0.0,0.0,0.0,0.0,0.0,0.0,0.0,0.0,0.0,0.0,0.0,0.0,0.0,0.0,0.0,0.0,0.0,0.0,0.0,0.0,0.0,0.0,0.0,0.0,0.0,0.0,0.0,0.0,0.0,0.0,0.0,0.0,0.0,0.0,0.0,0.0,0.0,0.0,0.0,0.0,0.0,0.0,0.0,0.0,0.0,0.0,0.0,0.0,0.0,0.0,0.0,0.0,0.0,0.0,0.0,0.0,0.0,0.0,0.0,0.0,0.0,0.0,0.0,0.0,0.0,0.0,0.0,0.0,0.0,0.0,0.0,0.0,0.0,0.0,0.0,0.0,0.0,0.0,0.0,0.0,0.0,0.0,0.0,0.0,0.0,0.0,0.0,0.0,0.0,0.0,0.0,0.0,0.0,0.0,0.0,0.0,0.0,0.0,0.0,0.0,0.0,0.0,0.0,0.0,0.0,0.0,0.0,0.0,0.0,0.0,0.0,0.0,0.0,0.0,0.0,0.0,0.0,0.0,0.0,0.0,0.0,0.0,0.0,0.0,0.0,0.0,0.0,0.0,0.0,0.0,0.0,0.0,0.0,0.0,0.0,0.0,0.0,0.0,0.0,0.0,0.0,0.0,0.0,0.0,0.0,0.0,0.0,0.0,0.0,0.0,0.0,0.0,0.0,0.0,0.0,0.0,0.0,0.0,0.0,0.0,0.0,0.0,0.0,0.0,0.0,0.0,0.0,0.0,0.0,0.0,0.0,0.0,0.0,0.0,0.0,0.0
0.26332463408730966,0.31482073604313704,0.3741036215106935,0.43467377992314327,0.490109101833619,0.5330467937020964,0.5564178258888767,0.5543387048178874,0.5227265459490948,0.46108938049238174,0.37196307362984926,0.26134293353875204,0.1382717892849929,0.013510014889896641,-0.10045605410445105,-0.19236092404419416,-0.2532644109882764,-0.27779512624790154,-0.26539163670656035,-0.2186790216371542,-0.14456036410966838,-0.05253566419429174,0.04678274768967709,0.14274386095370103,0.2274735952577682,0.2952166989976129,0.34317734172220027,0.37136062162725575,0.38160375945523095,0.37809375023723857,0.36514088243833376,0.34692592842938524,0.3270586925146567,0.30803362021098446,0.29257442208549794,0.28235342740346575,0.2787016970645447,0.2827567634020577,0.29509447964837004,0.3167916328655507,0.3475725384006391,0.38606894727931734,0.42969232902159915,0.474405102480112,0.5160838418547856,0.5498527505627052,0.5711824140517714,0.5766278946411406,0.5641849163007117,0.5344911313401018,0.48999438865207207,0.4349018202646142,0.3745878410404726,0.31442898550763265,0.26042170104223944,0.21705584665700486,0.18733028667715626,0.17254778743980453,0.17176977295969387,0.18396481750589566,0.20628287317132082,0.23516359384965696,0.26679819190628384,0.2970954886913439,0.3234040277820735,0.34353705095454584,0.35621326003191045,0.3610485963727632,0.3581425290395009,0.348775707574825,0.33485965800798895,0.31860212307063257,0.30208802341648994,0.28656700603805724,0.2731693319653061,0.261999275512477,0.2523958875860462,0.24312745046021667,0.23237991011422066,0.2192639007274185,0.20292261134409895,0.18324916525703647,0.16103613447999704,0.13759857568084952,0.11556463030678149,0.09727225526502141,0.08467622796580139,0.07894481849977744,0.07991779092357593,0.08709626820394928,0.09878041007976955,0.11282210280253097,0.1271226150922411,0.1396265893524618,0.15018828146023477,0.15899274569034688,0.16693753004595327,0.17530041168470473,0.18468182926927665,0.1967169743554648,0.211577541926664,0.22865706878647846,0.2467734129188834,0.26428019404285225,0.2803923479151647,0.29448285445084943,0.306739749820212,0.31824641415306204,0.33092116840230923,0.34675652558258024,0.3672721709665674,0.3929914594791916,0.42306931303679474,0.45500009075665615,0.48557743037946666,0.5105861007634315,0.5258237078770955,0.5278922119205274,0.5143304434495767,0.4857853575509602,0.4443481136942903,0.39378551457701017,0.33893834686588115,0.2844849105029652,0.23560886247457385,0.19587655681305494,0.16725404816899458,0.1499844818112349,0.14239677477837545,0.14250827063306848,0.1474134457430483,0.15422979719726268,0.16061282815469147,0.1646982044788462,0.16658580751031665,0.16711969417306305,0.16797257929704343,0.17124117449814807,0.17849706259448356,0.19176934399217294,0.21196270094055106,0.23884568188725105,0.27083779581322026,0.3044395413824931,0.3360195789543149,0.36081273921119605,0.37381702848490417,0.3704344171282924,0.34660851056994835,0.3013372722222259,0.23568529110233896,0.15347770874228103,0.061140778991758626,-0.033458573180880975,-0.1202388842078959,-0.18976844592078287,-0.23413807622366553,-0.2481528591447752,-0.23067831509064188,-0.1831743164715623,-0.1110214969759924,-0.02216601434303513,0.07408310957462448,0.16781914717819577,0.25158471196746784,0.3194193054810664,0.3679264451907118,0.39631907829402413,0.40550037148790624,0.39940919440621586,0.382262443588949,0.3585580750421271,0.33255958356425713,0.30757520365213414,0.2870002173417591,0.27294687433767534,0.2667005287657807,0.26880008883449,0.2789532277301793,0.29660924109150266,0.3204329192459315,0.34855892343604966,0.3787367604143885,0.40837683352322557,0.43548836236802313,0.4583659824922363,0.4760877918707209,0.488673431994287,0.4968218555549356,0.5023819451141326,0.5071877588635554,0.5127983855232424,0.5200681531964254,0.5286199789705993,0.5377903668119535,0.5458883389866134,0.5509884655248355,0.5514628743985639,0.5460864955426646,0.535412174022741,0.5204523278500878,0.5028383816606222,0.4844228087894435,0.466677351032824,0.4509019468761329,0.4375894831000973,0.4266036250640899,0.4173827431803231,0.40920856408033046,0.40140476424435934,0.0,0.0,0.0,0.0,0.0,0.0,0.0,0.0,0.0,0.0,0.0,0.0,0.0,0.0,0.0,0.0,0.0,0.0,0.0,0.0,0.0,0.0,0.0,0.0,0.0,0.0,0.0,0.0,0.0,0.0,0.0,0.0,0.0,0.0,0.0,0.0,0.0,0.0,0.0,0.0,0.0,0.0,0.0,0.0,0.0,0.0,0.0,0.0,0.0,0.0,0.0,0.0,0.0,0.0,0.0,0.0,0.0,0.0,0.0,0.0,0.0,0.0,0.0,0.0,0.0,0.0,0.0,0.0,0.0,0.0,0.0,0.0,0.0,0.0,0.0,0.0,0.0,0.0,0.0,0.0,0.0,0.0,0.0,0.0,0.0,0.0,0.0,0.0,0.0,0.0
-0.1831743164715623,-0.1110214969759924,-0.02216601434303513,0.07408310957462448,0.16781914717819577,0.25158471196746784,0.3194193054810664,0.3679264451907118,0.39631907829402413,0.40550037148790624,0.39940919440621586,0.382262443588949,0.3585580750421271,0.33255958356425713,0.30757520365213414,0.2870002173417591,0.27294687433767534,0.2667005287657807,0.26880008883449,0.2789532277301793,0.29660924109150266,0.3204329192459315,0.34855892343604966,0.3787367604143885,0.40837683352322557,0.43548836236802313,0.4583659824922363,0.4760877918707209,0.488673431994287,0.4968218555549356,0.5023819451141326,0.5071877588635554,0.5127983855232424,0.5200681531964254,0.5286199789705993,0.5377903668119535,0.5458883389866134,0.5509884655248355,0.5514628743985639,0.5460864955426646,0.535412174022741,0.5204523278500878,0.5028383816606222,0.4844228087894435,0.466677351032824,0.4509019468761329,0.4375894831000973,0.4266036250640899,0.4173827431803231,0.40920856408033046,0.40140476424435934,0.393801710068936,0.3865386576981714,0.3798510908057967,0.3735693164617141,0.36760636335811436,0.3612279708747334,0.3532690289342424,0.3423194384312704,0.32657731202508294,0.305687095450278,0.2794809335627929,0.2486788672540573,0.214915560081125,0.18033033972929877,0.14801720550264336,0.12058010324213433,0.10003774134570494,0.08751168173097967,0.08307109590656596,0.08590792917646947,0.09416232192028332,0.10549357298203389,0.11755933499275965,0.12826981165013693,0.13677459720697147,0.14261502589645558,0.1459989007988071,0.14760698825453966,0.14796511561784492,0.1484232725423317,0.14946292207326936,0.15115436326836812,0.15325191922659218,0.15491500936309785,0.15643600692345463,0.15761423845742847,0.1584013263361882,0.15889685019864472,0.1587288255752664,0.15879519173475876,0.15916580590970528,0.15972566043772632,0.16025045606090554,0.1600826547806661,0.1597900828535533,0.1595816200049168,0.15993525533157846,0.16160406192316637,0.16517130989890436,0.17205648049910527,0.18287584560224857,0.19764335886793694,0.21557623610708637,0.23475446988698895,0.2530433959344207,0.267225690413489,0.27379872970451913,0.26954841029100635,0.2520232231184312,0.2206229660710207,0.17615220894782338,0.1212330737091962,0.060138925021804596,-0.0020373532789913044,-0.05895756864436791,-0.10502426260088442,-0.13591425527331605,-0.14927056024739713,-0.1456420247057821,-0.12667410481349894,-0.09608038338839356,-0.05855383094856786,-0.018946057517417906,0.018238980097100496,0.0503463347795377,0.07611086786734085,0.09589535432355432,0.11137844521256132,0.12501615330944965,0.13938560165002215,0.1563687524713981,0.17678154820347353,0.20018927281549187,0.2248678188145328,0.24861991325559238,0.2687485656709417,0.2827877429583343,0.28900010041842245,0.28642547322344886,0.2759319303659709,0.2592142271140023,0.238715537789211,0.2171344539304631,0.19658734689137,0.1790632456050782,0.16520716297814425,0.15447487704017895,0.14526880744250373,0.13500994679225303,0.12162688435096082,0.10327826599674067,0.07919319786604646,0.05008568457300318,0.01796500379725633,-0.012838348956029906,-0.03721850859111861,-0.04965745636812059,-0.04509743829649742,-0.020273333987656537,0.02684800824951828,0.09518841889245007,0.18076814060893825,0.2769235741950312,0.3745472021481986,0.46423430476907585,0.5365110506318244,0.5832934672368244,0.5989445866865598,0.5806936787235109,0.5300027646946199,0.4518852349468966,0.35437930419214014,0.2474744144142811,0.14147015612789032,0.04655341676875249,-0.029089549534572375,-0.08001163378181952,-0.10399575785799767,-0.10234680456085164,-0.0785579339741874,-0.03830195042573272,0.011782837918512892,0.06508666999583276,0.11564002283504743,0.15948629751523002,0.1941410609340922,0.21882143743231816,0.2341690978496632,0.24162157703549328,0.24360072221993384,0.2422280636851044,0.23930772418174248,0.23618850012138504,0.23359714804885123,0.2323087025703785,0.23258896391418338,0.234545460076377,0.2382079023931069,0.24340158370933837,0.2501892269590293,0.25829120334374217,0.267237837933549,0.27642360576402064,0.2851316990037914,0.29306267108661604,0.3002103976348953,0.30707294631533694,0.3146393091349343,0.3241387030600905,0.0,0.0,0.0,0.0,0.0,0.0,0.0,0.0,0.0,0.0,0.0,0.0,0.0,0.0,0.0,0.0,0.0,0.0,0.0,0.0,0.0,0.0,0.0,0.0,0.0,0.0,0.0,0.0,0.0,0.0,0.0,0.0,0.0,0.0,0.0,0.0,0.0,0.0,0.0,0.0,0.0,0.0,0.0,0.0,0.0,0.0,0.0,0.0,0.0,0.0,0.0,0.0,0.0,0.0,0.0,0.0,0.0,0.0,0.0,0.0,0.0,0.0,0.0,0.0,0.0,0.0,0.0,0.0,0.0,0.0,0.0,0.0,0.0,0.0,0.0,0.0,0.0,0.0,0.0,0.0,0.0,0.0,0.0,0.0,0.0,0.0,0.0,0.0,0.0,0.0
0.5806936787235109,0.5300027646946199,0.4518852349468966,0.35437930419214014,0.2474744144142811,0.14147015612789032,0.04655341676875249,-0.029089549534572375,-0.08001163378181952,-0.10399575785799767,-0.10234680456085164,-0.0785579339741874,-0.03830195042573272,0.011782837918512892,0.06508666999583276,0.11564002283504743,0.15948629751523002,0.1941410609340922,0.21882143743231816,0.2341690978496632,0.24162157703549328,0.24360072221993384,0.2422280636851044,0.23930772418174248,0.23618850012138504,0.23359714804885123,0.2323087025703785,0.23258896391418338,0.234545460076377,0.2382079023931069,0.24340158370933837,0.2501892269590293,0.25829120334374217,0.267237837933549,0.27642360576402064,0.2851316990037914,0.29306267108661604,0.3002103976348953,0.30707294631533694,0.3146393091349343,0.3241387030600905,0.33691703245998417,0.3539236750970241,0.37531762406383173,0.4001855892056431,0.4262263587625498,0.4509051999210481,0.47094120904794046,0.48327849255327854,0.4857318692763519,0.47700009778050156,0.4584903215432027,0.43227607621382647,0.4013294711063694,0.3689407547733846,0.33780587504332565,0.31034491761142025,0.2874037882378435,0.26851211834403793,0.2521496402704173,0.23618056484833452,0.21859127761280897,0.198047461727415,0.17421302710806666,0.14783100240937663,0.12043954730580542,0.09432974530679358,0.0717353398680723,0.054459106181753314,0.04351236454833599,0.038793839052757115,0.039667438587578104,0.04453830194192316,0.05147420377825286,0.05864612835478052,0.06448958949092917,0.06864096611685341,0.0711478817771745,0.07258333890913972,0.07377989216122505,0.07525515163268622,0.07786906857539917,0.0817397677961679,0.08656482191022763,0.09177120120704862,0.09633870843382134,0.10030822431151287,0.10363599776972418,0.10661184898931754,0.10976251025287222,0.11315206673443352,0.11785996617477507,0.12419649057144024,0.13209521125711488,0.1411008744421409,0.1499651827675117,0.15834882235703443,0.16535329981215655,0.17021197374791106,0.17243923863140956,0.17149401246269108,0.16825694763551588,0.16332479439452754,0.15745705277134747,0.15144874181465304,0.14568931697656332,0.14098649722055714,0.13729062776170636,0.13407579117220095,0.13045824499789654,0.12527326444430378,0.11785249766519947,0.10762451584124748,0.09457858882451631,0.07939477961120521,0.06315662881120647,0.04801213254427191,0.03603892997930817,0.029076744013365855,0.028331314224513862,0.033699160174385755,0.04486300264231519,0.060466760949850464,0.07864243906397239,0.09739078556260745,0.11479767398812182,0.13001960600235687,0.14298704342954224,0.15458389692352537,0.16645025690070103,0.1805793513738339,0.19884570179703862,0.22235690559622195,0.25109779744172567,0.2837514561428221,0.3176602972678842,0.34964908982527354,0.37615382833079974,0.3940107595818623,0.4010526553849431,0.3962498635017539,0.3807053431013546,0.35671985295672687,0.3275598328542824,0.2968129315348027,0.26740277120029654,0.24192320177357085,0.22140615204956468,0.2054809410598627,0.19257320768466232,0.18003974155559044,0.16577172863488115,0.14787927073372048,0.12550424608626454,0.0991426456456257,0.07036126560152509,0.04265210567375001,0.019993090485321205,0.006498041891778804,0.005712083606589046,0.019594339418211697,0.049176483980390547,0.09329980609259893,0.14890393978113242,0.211280468254185,0.27415293264292656,0.3315511696464317,0.3775238528869154,0.4070986666091985,0.4168488529017809,0.4048610671891746,0.3722410423471604,0.3220561829674868,0.2592688977273163,0.1901482368502564,0.12109166289818918,0.059077515400242586,0.009797068370535414,-0.022719747306263367,-0.036552379201268075,-0.03243251484049391,-0.012297616122497024,0.020050489012802902,0.05993192313600148,0.10250256504030208,0.14303348648709605,0.1786249231093832,0.2072339202394847,0.22809625876560996,0.24155750928187222,0.24841684258724425,0.25074538799400925,0.2501975782301119,0.24822107818114456,0.24594963309681703,0.2439352263149314,0.24309140496401513,0.24376553621252053,0.24615068924442773,0.2503417569117618,0.25617026098699835,0.26376435038372703,0.27284193208514046,0.28292024373257985,0.29337135248067947,0.3033944633203416,0.31266064366152874,0.3210066189210732,0.32869142164037474,0.33640094804959714,0.0,0.0,0.0,0.0,0.0,0.0,0.0,0.0,0.0,0.0,0.0,0.0,0.0,0.0,0.0,0.0,0.0,0.0,0.0,0.0,0.0,0.0,0.0,0.0,0.0,0.0,0.0,0.0,0.0,0.0,0.0,0.0,0.0,0.0,0.0,0.0,0.0,0.0,0.0,0.0,0.0,0.0,0.0,0.0,0.0,0.0,0.0,0.0,0.0,0.0,0.0,0.0,0.0,0.0,0.0,0.0,0.0,0.0,0.0,0.0,0.0,0.0,0.0,0.0,0.0,0.0,0.0,0.0,0.0,0.0,0.0,0.0,0.0,0.0,0.0,0.0,0.0,0.0,0.0,0.0,0.0,0.0,0.0,0.0,0.0,0.0,0.0,0.0,0.0,0.0
