0.29068486191279536,0.2987281253035239,0.3064001426986551,0.3129682129942357,0.31775095920428825,0.320220790519483,0.31959003433976385,0.3163795597513201,0.31107915558068994,0.30443672045001363,0.29731009714121687,0.2899563055849455,0.2835805662924943,0.27874254522868114,0.27570452145145263,0.27439940376295074,0.2738630374633036,0.2741866972955394,0.27498853582733124,0.275969842991567,0.27694629571275686,0.27715401309746734,0.2772959285738527,0.2776261971952557,0.2783477365478255,0.2794931876625629,0.2801092391951264,0.28062009494576323,0.2808989584979039,0.28091060971229326,0.280736309707908,0.27974594843770223,0.2789868498857858,0.27894145465544423,0.2799388563507851,0.2819794317532532,0.28380839943933434,0.28556812485223704,0.286755076973499,0.28702872747714425,0.2863581967140714,0.28422302264310273,0.2822611954655732,0.2818155951052081,0.2842798938567009,0.2907369616748897,0.3007577602656765,0.31500843239430626,0.3328845962619968,0.3533024325696507,0.3748904081132186,0.3952734168417587,0.41420209882488673,0.4311574201274951,0.4460440425281018,0.4590438545515475,0.4694348407678505,0.47850069902371906,0.4867555964795226,0.4946306937372888,0.5024334099939084,0.5093388553591197,0.516552177491131,0.5246401368921055,0.5342216804325657,0.5458229654362693,0.5586807123191208,0.5737984663373197,0.5911648243066316,0.6104462057515375,0.6309574048102728,0.6507161223923604,0.6696248338482762,0.6870247203866917,0.7025379869278306,0.7160918441842764,0.726923636431912,0.7364035717854288,0.7453612590927029,0.7545720676730895,0.7645213394648335,0.7743308087673675,0.7845351746691679,0.7947272127948232,0.804374400562134,0.8129508347453904,0.8191785349776052,0.0,0.0,0.0,0.0,0.0,0.0,0.0,0.0,0.0,0.0,0.0,0.0,0.0,0.0,0.0,0.0,0.0,0.0,0.0,0.0,0.0,0.0,0.0,0.0,0.0,0.0,0.0,0.0,0.0,0.0,0.0,0.0,0.0,0.0,0.0,0.0,0.0,0.0,0.0,0.0,0.0,0.0,0.0,0.0,0.0,0.0,0.0,0.0,0.0,0.0,0.0,0.0,0.0,0.0,0.0,0.0,0.0,0.0,0.0,0.0,0.0,0.0,0.0,0.0,0.0,0.0,0.0,0.0,0.0,0.0,0.0,0.0,0.0,0.0,0.0,0.0,0.0,0.0,0.0,0.0,0.0,0.0,0.0,0.0,0.0,0.0,0.0,0.0,0.0,0.0,0.0,0.0,0.0,0.0,0.0,0.0,0.0,0.0,0.0,0.0,0.0,0.0,0.0,0.0,0.0,0.0,0.0,0.0,0.0,0.0,0.0,0.0,0.0,0.0,0.0,0.0,0.0,0.0,0.0,0.0,0.0,0.0,0.0,0.0,0.0,0.0,0.0,0.0,0.0,0.0,0.0,0.0,0.0,0.0,0.0,0.0,0.0,0.0,0.0,0.0,0.0,0.0,0.0,0.0,0.0,0.0,0.0,0.0,0.0,0.0,0.0,0.0,0.0,0.0,0.0,0.0,0.0,0.0,0.0,0.0,0.0,0.0,0.0,0.0,0.0,0.0,0.0,0.0,0.0,0.0,0.0,0.0,0.0,0.0,0.0,0.0,0.0,0.0,0.0,0.0,0.0,0.0,0.0,0.0,0.0,0.0,0.0,0.0,0.0,0.0,0.0,0.0,0.0,0.0,0.0,0.0,0.0,0.0,0.0,0.0,0.0,0.0,0.0,0.0,0.0,0.0,0.0,0.0,0.0,0.0,0.0,0.0,0.0
0.3952734168417587,0.41420209882488673,0.4311574201274951,0.4460440425281018,0.4590438545515475,0.4694348407678505,0.47850069902371906,0.4867555964795226,0.4946306937372888,0.5024334099939084,0.5093388553591197,0.516552177491131,0.5246401368921055,0.5342216804325657,0.5458229654362693,0.5586807123191208,0.5737984663373197,0.5911648243066316,0.6104462057515375,0.6309574048102728,0.6507161223923604,0.6696248338482762,0.6870247203866917,0.7025379869278306,0.7160918441842764,0.726923636431912,0.7364035717854288,0.7453612590927029,0.7545720676730895,0.7645213394648335,0.7743308087673675,0.7845351746691679,0.7947272127948232,0.804374400562134,0.8129508347453904,0.8191785349776052,0.823799251186921,0.8272100944704437,0.8300081856808579,0.8327958899622728,0.835194277536235,0.838233333774148,0.8421297101670264,0.8469471328397055,0.8526409451791553,0.8583646364917363,0.8647766654633664,0.8719538754266702,0.8798995148020599,0.8884445014161141,0.8966582359100427,0.9046636640671772,0.9120330789035178,0.9185249034838918,0.9242480576530727,0.9293539697632569,0.9351545033117116,0.942419122734205,0.9515689284458108,0.9624492871172545,0.9738764851473576,0.9850303623411971,0.9942083900230423,0.9997824648909026,1.0006505165814363,0.996164234425328,0.9875345212878541,0.9760110498857603,0.9630943208507203,0.9501605357069519,0.9377476609837566,0.9268818673419971,0.9173219273908081,0.9084558720244763,0.8996705548324675,0.8902131361436733,0.8809065408031552,0.8720589977435499,0.863972722019067,0.8567433282286473,0.8496644765746371,0.8428458654050689,0.8352645366525333,0.8258327878684051,0.813816101624827,0.7986947575551646,0.7819398528473996,0.0,0.0,0.0,0.0,0.0,0.0,0.0,0.0,0.0,0.0,0.0,0.0,0.0,0.0,0.0,0.0,0.0,0.0,0.0,0.0,0.0,0.0,0.0,0.0,0.0,0.0,0.0,0.0,0.0,0.0,0.0,0.0,0.0,0.0,0.0,0.0,0.0,0.0,0.0,0.0,0.0,0.0,0.0,0.0,0.0,0.0,0.0,0.0,0.0,0.0,0.0,0.0,0.0,0.0,0.0,0.0,0.0,0.0,0.0,0.0,0.0,0.0,0.0,0.0,0.0,0.0,0.0,0.0,0.0,0.0,0.0,0.0,0.0,0.0,0.0,0.0,0.0,0.0,0.0,0.0,0.0,0.0,0.0,0.0,0.0,0.0,0.0,0.0,0.0,0.0,0.0,0.0,0.0,0.0,0.0,0.0,0.0,0.0,0.0,0.0,0.0,0.0,0.0,0.0,0.0,0.0,0.0,0.0,0.0,0.0,0.0,0.0,0.0,0.0,0.0,0.0,0.0,0.0,0.0,0.0,0.0,0.0,0.0,0.0,0.0,0.0,0.0,0.0,0.0,0.0,0.0,0.0,0.0,0.0,0.0,0.0,0.0,0.0,0.0,0.0,0.0,0.0,0.0,0.0,0.0,0.0,0.0,0.0,0.0,0.0,0.0,0.0,0.0,0.0,0.0,0.0,0.0,0.0,0.0,0.0,0.0,0.0,0.0,0.0,0.0,0.0,0.0,0.0,0.0,0.0,0.0,0.0,0.0,0.0,0.0,0.0,0.0,0.0,0.0,0.0,0.0,0.0,0.0,0.0,0.0,0.0,0.0,0.0,0.0,0.0,0.0,0.0,0.0,0.0,0.0,0.0,0.0,0.0,0.0,0.0,0.0,0.0,0.0,0.0,0.0,0.0,0.0,0.0,0.0,0.0,0.0,0.0,0.0
0.6521146795245225,0.6185069122502505,0.5745231927061574,0.520219366994007,0.45733724460976,0.38922963140205,0.3200926994765858,0.2556104441406274,0.20009890683986495,0.1565704674029701,0.1263445832795775,0.10870523209691993,0.10230506826421557,0.10375888855925348,0.1091478980754341,0.11488122342440242,0.11809559415758658,0.11829716250221783,0.1153318876437703,0.10994183686849043,0.10341786356922734,0.09684725274982198,0.0920901032170812,0.08937771413843086,0.0881867635448037,0.08756623858808514,0.08619813735189416,0.08417397586905051,0.08105805948758471,0.07679330621954485,0.07171461360694294,0.06605605833830609,0.06123091739802679,0.057510724121458065,0.05475884197399629,0.05254748482281869,0.0499682302912399,0.04724907450915583,0.04383509133978683,0.03927931505496862,0.03338035603869442,0.025881418465770665,0.017853874691048904,0.009637863801987716,0.0015098388511186375,-0.006327272408007367,-0.014147604738112995,-0.0213633692357255,-0.028468542301461633,-0.036331695358112696,-0.04603490085470916,-0.05901818905085487,-0.07541183779664717,-0.09556197929646326,-0.11917446148635784,-0.14518527611760546,-0.17209161086663008,-0.1972909390196875,-0.21865611225425569,-0.2345855694656796,-0.24433565138050178,-0.24830959214502282,-0.24748391726706537,-0.2436075712159269,-0.23859139838772672,-0.23403525810986636,-0.23090099823579624,-0.2291797728436323,-0.22820830021936633,-0.226825872383396,-0.223734864839231,-0.21780903023401496,-0.20853497334480484,-0.19613865677934053,-0.18148054301709585,-0.16581240450188628,-0.15044084726095477,-0.1364480740687452,-0.12457597554537682,-0.11510347350562923,-0.10788994416454155,-0.10254011689584706,-0.09845759169645507,-0.0951623272651838,-0.09230576115282647,-0.08966403315033238,-0.08715011564485707,0.0,0.0,0.0,0.0,0.0,0.0,0.0,0.0,0.0,0.0,0.0,0.0,0.0,0.0,0.0,0.0,0.0,0.0,0.0,0.0,0.0,0.0,0.0,0.0,0.0,0.0,0.0,0.0,0.0,0.0,0.0,0.0,0.0,0.0,0.0,0.0,0.0,0.0,0.0,0.0,0.0,0.0,0.0,0.0,0.0,0.0,0.0,0.0,0.0,0.0,0.0,0.0,0.0,0.0,0.0,0.0,0.0,0.0,0.0,0.0,0.0,0.0,0.0,0.0,0.0,0.0,0.0,0.0,0.0,0.0,0.0,0.0,0.0,0.0,0.0,0.0,0.0,0.0,0.0,0.0,0.0,0.0,0.0,0.0,0.0,0.0,0.0,0.0,0.0,0.0,0.0,0.0,0.0,0.0,0.0,0.0,0.0,0.0,0.0,0.0,0.0,0.0,0.0,0.0,0.0,0.0,0.0,0.0,0.0,0.0,0.0,0.0,0.0,0.0,0.0,0.0,0.0,0.0,0.0,0.0,0.0,0.0,0.0,0.0,0.0,0.0,0.0,0.0,0.0,0.0,0.0,0.0,0.0,0.0,0.0,0.0,0.0,0.0,0.0,0.0,0.0,0.0,0.0,0.0,0.0,0.0,0.0,0.0,0.0,0.0,0.0,0.0,0.0,0.0,0.0,0.0,0.0,0.0,0.0,0.0,0.0,0.0,0.0,0.0,0.0,0.0,0.0,0.0,0.0,0.0,0.0,0.0,0.0,0.0,0.0,0.0,0.0,0.0,0.0,0.0,0.0,0.0,0.0,0.0,0.0,0.0,0.0,0.0,0.0,0.0,0.0,0.0,0.0,0.0,0.0,0.0,0.0,0.0,0.0,0.0,0.0,0.0,0.0,0.0,0.0,0.0,0.0,0.0,0.0,0.0,0.0,0.0,0.0
-0.01493373095326987,-0.010705310364178895,-0.006570982728306379,-0.0031673630218613676,-0.0005702257253830165,0.0013826751710951087,0.0030327508293248625,0.004734714930583062,0.0067530049538509105,0.009090963184908341,0.01154140697293647,0.013789142319607638,0.015570394697343991,0.016881177460852995,0.017954042599247388,0.019351159124417806,0.02187499450399444,0.026406074464104916,0.033746373524611725,0.04423804171516909,0.05772386282393826,0.07349507504797029,0.09040589162482486,0.10714500222222956,0.12247174671636432,0.13551167785779336,0.14600776245055636,0.1544057087855448,0.16175734887418058,0.16945834199839852,0.17872168279713047,0.19025213095165164,0.20397031668233795,0.21891701806718825,0.2334472090910811,0.24539618457102888,0.25262785700778545,0.2535349245791311,0.24740756468586328,0.23471272388448966,0.21680848452180954,0.19572432049770228,0.1737178939760588,0.15280603941817755,0.13434972808118753,0.11878934881087594,0.10567651968104999,0.0939008633729865,0.0821048392527962,0.06896535410866687,0.05367037296275582,0.03609769144087678,0.016845703890374913,-0.002890821647340986,-0.021673367034544533,-0.03809387168413602,-0.05110093357881907,-0.060209455592236685,-0.06556336150130107,-0.06786504493287367,-0.06816995574487757,-0.06762009282008673,-0.06718375481134152,-0.06746074183360237,-0.06861528717201464,-0.07043224995039464,-0.07245182663838477,-0.07415805403044635,-0.07515094696360061,-0.07527025956950262,-0.07464387488396998,-0.07360310929125126,-0.07254594919448872,-0.0718641987220713,-0.07156080924741255,-0.07151670552756627,-0.07143261603446176,-0.07093384435853106,-0.06986246997909427,-0.0678395754425071,-0.06490354164361911,-0.061300412739721255,-0.05740198344300779,-0.05379628916360928,-0.05052423244159699,-0.047758833006166145,-0.045554304100814146,-0.0438701225274845,-0.042849778843215634,-0.042075678191437774,-0.04147656608724939,-0.0410251416420223,-0.040697086784102436,-0.04061207344563958,-0.040413815452352966,-0.03993341561289162,-0.03900982943716004,-0.037524051040720374,-0.035555275441919776,-0.03297829535391979,-0.02987649844074855,-0.026390325168154857,-0.022691283878444605,-0.019055594709723133,-0.015582211681327637,-0.012431986555709984,-0.009785816665939412,-0.007858516716168835,-0.006944891590821836,-0.007238024705599169,-0.00880475217435343,-0.011534865867292703,-0.015107511237983068,-0.019109749450538012,-0.022741468400524587,-0.02507888617944772,-0.02519777379389893,-0.022356505759797297,-0.016347640489480047,-0.007078426431049862,0.00508752844630221,0.019415749867816662,0.034880313971956865,0.050038361893039826,0.063940414959438,0.0758096907325169,0.08522516612701658,0.09211713370371101,0.09637190418249343,0.098696155340511,0.09985209478552737,0.10063364725779214,0.1016817436149954,0.10302790833931777,0.10491464124424575,0.10718678176953743,0.1094705316188392,0.1112463535262798,0.11167485084672442,0.11055988848845075,0.10788454505873465,0.10397202988877298,0.09941410229024142,0.0,0.0,0.0,0.0,0.0,0.0,0.0,0.0,0.0,0.0,0.0,0.0,0.0,0.0,0.0,0.0,0.0,0.0,0.0,0.0,0.0,0.0,0.0,0.0,0.0,0.0,0.0,0.0,0.0,0.0,0.0,0.0,0.0,0.0,0.0,0.0,0.0,0.0,0.0,0.0,0.0,0.0,0.0,0.0,0.0,0.0,0.0,0.0,0.0,0.0,0.0,0.0,0.0,0.0,0.0,0.0,0.0,0.0,0.0,0.0,0.0,0.0,0.0,0.0,0.0,0.0,0.0,0.0,0.0,0.0,0.0,0.0,0.0,0.0,0.0,0.0,0.0,0.0,0.0,0.0,0.0,0.0,0.0,0.0,0.0,0.0,0.0,0.0,0.0,0.0,0.0,0.0,0.0,0.0,0.0,0.0,0.0,0.0,0.0,0.0,0.0,0.0,0.0,0.0,0.0,0.0,0.0,0.0,0.0,0.0,0.0,0.0,0.0,0.0,0.0,0.0,0.0,0.0,0.0,0.0,0.0,0.0,0.0,0.0,0.0,0.0,0.0,0.0,0.0,0.0,0.0,0.0,0.0,0.0,0.0,0.0,0.0,0.0,0.0,0.0,0.0,0.0,0.0,0.0,0.0,0.0,0.0,0.0,0.0,0.0,0.0,0.0,0.0,0.0,0.0,0.0,0.0
0.03609769144087678,0.016845703890374913,-0.002890821647340986,-0.021673367034544533,-0.03809387168413602,-0.05110093357881907,-0.060209455592236685,-0.06556336150130107,-0.06786504493287367,-0.06816995574487757,-0.06762009282008673,-0.06718375481134152,-0.06746074183360237,-0.06861528717201464,-0.07043224995039464,-0.07245182663838477,-0.07415805403044635,-0.07515094696360061,-0.07527025956950262,-0.07464387488396998,-0.07360310929125126,-0.07254594919448872,-0.0718641987220713,-0.07156080924741255,-0.07151670552756627,-0.07143261603446176,-0.07093384435853106,-0.06986246997909427,-0.0678395754425071,-0.06490354164361911,-0.061300412739721255,-0.05740198344300779,-0.05379628916360928,-0.05052423244159699,-0.047758833006166145,-0.045554304100814146,-0.0438701225274845,-0.042849778843215634,-0.042075678191437774,-0.04147656608724939,-0.0410251416420223,-0.040697086784102436,-0.04061207344563958,-0.040413815452352966,-0.03993341561289162,-0.03900982943716004,-0.037524051040720374,-0.035555275441919776,-0.03297829535391979,-0.02987649844074855,-0.026390325168154857,-0.022691283878444605,-0.019055594709723133,-0.015582211681327637,-0.012431986555709984,-0.009785816665939412,-0.007858516716168835,-0.006944891590821836,-0.007238024705599169,-0.00880475217435343,-0.011534865867292703,-0.015107511237983068,-0.019109749450538012,-0.022741468400524587,-0.02507888617944772,-0.02519777379389893,-0.022356505759797297,-0.016347640489480047,-0.007078426431049862,0.00508752844630221,0.019415749867816662,0.034880313971956865,0.050038361893039826,0.063940414959438,0.0758096907325169,0.08522516612701658,0.09211713370371101,0.09637190418249343,0.098696155340511,0.09985209478552737,0.10063364725779214,0.1016817436149954,0.10302790833931777,0.10491464124424575,0.10718678176953743,0.1094705316188392,0.1112463535262798,0.11167485084672442,0.11055988848845075,0.10788454505873465,0.10397202988877298,0.09941410229024142,0.09465351694223945,0.09060478709960271,0.08791668923468327,0.0869329612734881,0.08758185105420305,0.08910991446950084,0.09096704802403671,0.09247117326304342,0.0931381240642881,0.09283437943618071,0.09156994599165076,0.090291972208513,0.09015310806152604,0.09240414347687172,0.09808690781815835,0.10746424969319154,0.12072621828382413,0.13731132148795394,0.15616187622599353,0.17592085670672775,0.19491510259985909,0.21229576580934853,0.22764212116167762,0.24119382391275263,0.2537548055952972,0.2661711039964288,0.27982944291703,0.29570797891903206,0.31420229034623,0.3349191220977769,0.3563654509690365,0.3770074973681489,0.39491395641696597,0.4083398382459994,0.41608343860025665,0.4174268477920651,0.41312756931069355,0.40449489313962933,0.39331982404487836,0.3814829404213587,0.37027679524771057,0.36104298373492527,0.35424431072587825,0.3497274926746269,0.3468824422424608,0.3445848492777586,0.34234600310263646,0.33968547678087796,0.33644162995731847,0.3327416670606658,0.32861682265009784,0.0,0.0,0.0,0.0,0.0,0.0,0.0,0.0,0.0,0.0,0.0,0.0,0.0,0.0,0.0,0.0,0.0,0.0,0.0,0.0,0.0,0.0,0.0,0.0,0.0,0.0,0.0,0.0,0.0,0.0,0.0,0.0,0.0,0.0,0.0,0.0,0.0,0.0,0.0,0.0,0.0,0.0,0.0,0.0,0.0,0.0,0.0,0.0,0.0,0.0,0.0,0.0,0.0,0.0,0.0,0.0,0.0,0.0,0.0,0.0,0.0,0.0,0.0,0.0,0.0,0.0,0.0,0.0,0.0,0.0,0.0,0.0,0.0,0.0,0.0,0.0,0.0,0.0,0.0,0.0,0.0,0.0,0.0,0.0,0.0,0.0,0.0,0.0,0.0,0.0,0.0,0.0,0.0,0.0,0.0,0.0,0.0,0.0,0.0,0.0,0.0,0.0,0.0,0.0,0.0,0.0,0.0,0.0,0.0,0.0,0.0,0.0,0.0,0.0,0.0,0.0,0.0,0.0,0.0,0.0,0.0,0.0,0.0,0.0,0.0,0.0,0.0,0.0,0.0,0.0,0.0,0.0,0.0,0.0,0.0,0.0,0.0,0.0,0.0,0.0,0.0,0.0,0.0,0.0,0.0,0.0,0.0,0.0,0.0,0.0,0.0,0.0,0.0,0.0,0.0,0.0,0.0
0.09985209478552737,0.10063364725779214,0.1016817436149954,0.10302790833931777,0.10491464124424575,0.10718678176953743,0.1094705316188392,0.1112463535262798,0.11167485084672442,0.11055988848845075,0.10788454505873465,0.10397202988877298,0.09941410229024142,0.09465351694223945,0.09060478709960271,0.08791668923468327,0.0869329612734881,0.08758185105420305,0.08910991446950084,0.09096704802403671,0.09247117326304342,0.0931381240642881,0.09283437943618071,0.09156994599165076,0.090291972208513,0.09015310806152604,0.09240414347687172,0.09808690781815835,0.10746424969319154,0.12072621828382413,0.13731132148795394,0.15616187622599353,0.17592085670672775,0.19491510259985909,0.21229576580934853,0.22764212116167762,0.24119382391275263,0.2537548055952972,0.2661711039964288,0.27982944291703,0.29570797891903206,0.31420229034623,0.3349191220977769,0.3563654509690365,0.3770074973681489,0.39491395641696597,0.4083398382459994,0.41608343860025665,0.4174268477920651,0.41312756931069355,0.40449489313962933,0.39331982404487836,0.3814829404213587,0.37027679524771057,0.36104298373492527,0.35424431072587825,0.3497274926746269,0.3468824422424608,0.3445848492777586,0.34234600310263646,0.33968547678087796,0.33644162995731847,0.3327416670606658,0.32861682265009784,0.3247523199007126,0.321595777588216,0.31948654316412517,0.3186008918788709,0.31866366844275223,0.31981222968283324,0.3218855764002344,0.3246483873074939,0.32779597804710126,0.3307396093329747,0.33334506966258104,0.3353439362926587,0.33656938321673874,0.3369910642153316,0.3365425632519284,0.33565733505280126,0.3346620549749835,0.333846419836098,0.3333733185253982,0.3330153726018964,0.33282552381422326,0.3324744843310594,0.3315679156683286,0.3297555728354647,0.3265918667013676,0.32237483771872427,0.3172659542427006,0.31154637422464876,0.3055649827370541,0.2994288976013907,0.2938181697357927,0.2889187337576561,0.28478294225786804,0.28137439263864344,0.27834903460992855,0.2760352371766508,0.27426023094693147,0.2727911153346372,0.2713881688869445,0.2694156769089039,0.2673447267673901,0.2652318759250925,0.2631980846931334,0.2614019451352455,0.2593775117847763,0.25796194929539273,0.2573591750080592,0.2576419482313557,0.25869081350607925,0.2597096510147744,0.26066531376522567,0.26087138699670936,0.2595499239194788,0.25597968187691295,0.2493876066947051,0.23998782495459886,0.22800918686293792,0.21405675805118396,0.19905404477281807,0.18385956268446063,0.16993569691099375,0.1581274382503274,0.14886605617454005,0.14212840766872317,0.13726639664178641,0.1339619819089969,0.13142821042035785,0.12896666293071077,0.12614901187850108,0.12265141263419088,0.11906209085384759,0.11569929840301311,0.11276226559807079,0.11016961608827903,0.10722356055850367,0.10356528343517825,0.09831916630534489,0.09077361961920374,0.08076636803233501,0.0,0.0,0.0,0.0,0.0,0.0,0.0,0.0,0.0,0.0,0.0,0.0,0.0,0.0,0.0,0.0,0.0,0.0,0.0,0.0,0.0,0.0,0.0,0.0,0.0,0.0,0.0,0.0,0.0,0.0,0.0,0.0,0.0,0.0,0.0,0.0,0.0,0.0,0.0,0.0,0.0,0.0,0.0,0.0,0.0,0.0,0.0,0.0,0.0,0.0,0.0,0.0,0.0,0.0,0.0,0.0,0.0,0.0,0.0,0.0,0.0,0.0,0.0,0.0,0.0,0.0,0.0,0.0,0.0,0.0,0.0,0.0,0.0,0.0,0.0,0.0,0.0,0.0,0.0,0.0,0.0,0.0,0.0,0.0,0.0,0.0,0.0,0.0,0.0,0.0,0.0,0.0,0.0,0.0,0.0,0.0,0.0,0.0,0.0,0.0,0.0,0.0,0.0,0.0,0.0,0.0,0.0,0.0,0.0,0.0,0.0,0.0,0.0,0.0,0.0,0.0,0.0,0.0,0.0,0.0,0.0,0.0,0.0,0.0,0.0,0.0,0.0,0.0,0.0,0.0,0.0,0.0,0.0,0.0,0.0,0.0,0.0,0.0,0.0,0.0,0.0,0.0,0.0,0.0,0.0,0.0,0.0,0.0,0.0,0.0,0.0,0.0,0.0,0.0,0.0,0.0,0.0
0.39331982404487836,0.3814829404213587,0.37027679524771057,0.36104298373492527,0.35424431072587825,0.3497274926746269,0.3468824422424608,0.3445848492777586,0.34234600310263646,0.33968547678087796,0.33644162995731847,0.3327416670606658,0.32861682265009784,0.3247523199007126,0.321595777588216,0.31948654316412517,0.3186008918788709,0.31866366844275223,0.31981222968283324,0.3218855764002344,0.3246483873074939,0.32779597804710126,0.3307396093329747,0.33334506966258104,0.3353439362926587,0.33656938321673874,0.3369910642153316,0.3365425632519284,0.33565733505280126,0.3346620549749835,0.333846419836098,0.3333733185253982,0.3330153726018964,0.33282552381422326,0.3324744843310594,0.3315679156683286,0.3297555728354647,0.3265918667013676,0.32237483771872427,0.3172659542427006,0.31154637422464876,0.3055649827370541,0.2994288976013907,0.2938181697357927,0.2889187337576561,0.28478294225786804,0.28137439263864344,0.27834903460992855,0.2760352371766508,0.27426023094693147,0.2727911153346372,0.2713881688869445,0.2694156769089039,0.2673447267673901,0.2652318759250925,0.2631980846931334,0.2614019451352455,0.2593775117847763,0.25796194929539273,0.2573591750080592,0.2576419482313557,0.25869081350607925,0.2597096510147744,0.26066531376522567,0.26087138699670936,0.2595499239194788,0.25597968187691295,0.2493876066947051,0.23998782495459886,0.22800918686293792,0.21405675805118396,0.19905404477281807,0.18385956268446063,0.16993569691099375,0.1581274382503274,0.14886605617454005,0.14212840766872317,0.13726639664178641,0.1339619819089969,0.13142821042035785,0.12896666293071077,0.12614901187850108,0.12265141263419088,0.11906209085384759,0.11569929840301311,0.11276226559807079,0.11016961608827903,0.10722356055850367,0.10356528343517825,0.09831916630534489,0.09077361961920374,0.08076636803233501,0.06873739351251414,0.05682351382277889,0.047736321642273025,0.04478826555532298,0.05136311997639101,0.06996633425571724,0.10251803729703896,0.1487776717628972,0.20642593343646423,0.2711665799916533,0.3368330337225973,0.39731621821139207,0.4463103115256531,0.47862506538051236,0.49097004000691563,0.48201137867503163,0.4538397732278729,0.41033445358638004,0.35690894495442094,0.2996274790733284,0.24384683204777496,0.19471393634559156,0.1552910826903942,0.1267090863259172,0.10828491813974112,0.09754709736544369,0.09215182863728778,0.08930186247671767,0.086718673473922,0.08302214566633208,0.07756648150114301,0.07119503089016173,0.06500397710815424,0.06020799211274196,0.05775937319292306,0.057937029518208026,0.06077145328140058,0.06559369171887008,0.07144057093874309,0.0773456795396927,0.08248950028624022,0.08673662185513119,0.0902307215890852,0.09343257720706273,0.09693198588646229,0.10116372315824679,0.10647913855427624,0.11275694466738685,0.119563220728866,0.12632230060492855,0.13250299509452643,0.0,0.0,0.0,0.0,0.0,0.0,0.0,0.0,0.0,0.0,0.0,0.0,0.0,0.0,0.0,0.0,0.0,0.0,0.0,0.0,0.0,0.0,0.0,0.0,0.0,0.0,0.0,0.0,0.0,0.0,0.0,0.0,0.0,0.0,0.0,0.0,0.0,0.0,0.0,0.0,0.0,0.0,0.0,0.0,0.0,0.0,0.0,0.0,0.0,0.0,0.0,0.0,0.0,0.0,0.0,0.0,0.0,0.0,0.0,0.0,0.0,0.0,0.0,0.0,0.0,0.0,0.0,0.0,0.0,0.0,0.0,0.0,0.0,0.0,0.0,0.0,0.0,0.0,0.0,0.0,0.0,0.0,0.0,0.0,0.0,0.0,0.0,0.0,0.0,0.0,0.0,0.0,0.0,0.0,0.0,0.0,0.0,0.0,0.0,0.0,0.0,0.0,0.0,0.0,0.0,0.0,0.0,0.0,0.0,0.0,0.0,0.0,0.0,0.0,0.0,0.0,0.0,0.0,0.0,0.0,0.0,0.0,0.0,0.0,0.0,0.0,0.0,0.0,0.0,0.0,0.0,0.0,0.0,0.0,0.0,0.0,0.0,0.0,0.0,0.0,0.0,0.0,0.0,0.0,0.0,0.0,0.0,0.0,0.0,0.0,0.0,0.0,0.0,0.0,0.0,0.0,0.0
0.1339619819089969,0.13142821042035785,0.12896666293071077,0.12614901187850108,0.12265141263419088,0.11906209085384759,0.11569929840301311,0.11276226559807079,0.11016961608827903,0.10722356055850367,0.10356528343517825,0.09831916630534489,0.09077361961920374,0.08076636803233501,0.06873739351251414,0.05682351382277889,0.047736321642273025,0.04478826555532298,0.05136311997639101,0.06996633425571724,0.10251803729703896,0.1487776717628972,0.20642593343646423,0.2711665799916533,0.3368330337225973,0.39731621821139207,0.4463103115256531,0.47862506538051236,0.49097004000691563,0.48201137867503163,0.4538397732278729,0.41033445358638004,0.35690894495442094,0.2996274790733284,0.24384683204777496,0.19471393634559156,0.1552910826903942,0.1267090863259172,0.10828491813974112,0.09754709736544369,0.09215182863728778,0.08930186247671767,0.086718673473922,0.08302214566633208,0.07756648150114301,0.07119503089016173,0.06500397710815424,0.06020799211274196,0.05775937319292306,0.057937029518208026,0.06077145328140058,0.06559369171887008,0.07144057093874309,0.0773456795396927,0.08248950028624022,0.08673662185513119,0.0902307215890852,0.09343257720706273,0.09693198588646229,0.10116372315824679,0.10647913855427624,0.11275694466738685,0.119563220728866,0.12632230060492855,0.13250299509452643,0.13802135995169473,0.14316525628466084,0.14869399506124623,0.1557126153233948,0.16538531748153457,0.17870774718349947,0.19605090781300685,0.21699840595734948,0.24031402018728032,0.26395897791400863,0.2860130955382079,0.30439163072404163,0.3175659788205086,0.3249154250511659,0.3265768741632867,0.3243530239084287,0.32002315405029647,0.31535785764148594,0.31168537265755936,0.3093731730529886,0.30836631378016743,0.30742575574379377,0.304748997192035,0.2984553202639529,0.2869966836120263,0.26987874770649567,0.24748366866370458,0.22113976618631678,0.19285091559110357,0.1647886569034123,0.13913316509627333,0.11736486935456507,0.1001369885236788,0.08724651091825425,0.07771008644560874,0.07033518465090037,0.06379912440787983,0.05705111318090566,0.04952561680682618,0.04109295147651822,0.032355087530624445,0.024075442591302006,0.017037600936796547,0.011804722695398092,0.008409622157144827,0.00679403308947042,0.0064193881467844655,0.006585723644499004,0.0066424384928653905,0.005994040522888537,0.004777822666450369,0.0032789046263861955,0.0019985158524093542,0.001480154290332691,0.001923659520782344,0.0037268184488197147,0.006760342288522187,0.010633812783194111,0.01482057367992298,0.018528224389989655,0.021753033522392808,0.02437308490067248,0.026449374475199315,0.02816099306951327,0.029356069566887293,0.03065128618994282,0.03212728478520971,0.03374529356836988,0.03540616812741679,0.036599037804929485,0.037814424270832606,0.039160451919995766,0.04075231993385646,0.0426513431853203,0.04432940387461854,0.04620581664679529,0.048166139369777754,0.05007648642772532,0.0,0.0,0.0,0.0,0.0,0.0,0.0,0.0,0.0,0.0,0.0,0.0,0.0,0.0,0.0,0.0,0.0,0.0,0.0,0.0,0.0,0.0,0.0,0.0,0.0,0.0,0.0,0.0,0.0,0.0,0.0,0.0,0.0,0.0,0.0,0.0,0.0,0.0,0.0,0.0,0.0,0.0,0.0,0.0,0.0,0.0,0.0,0.0,0.0,0.0,0.0,0.0,0.0,0.0,0.0,0.0,0.0,0.0,0.0,0.0,0.0,0.0,0.0,0.0,0.0,0.0,0.0,0.0,0.0,0.0,0.0,0.0,0.0,0.0,0.0,0.0,0.0,0.0,0.0,0.0,0.0,0.0,0.0,0.0,0.0,0.0,0.0,0.0,0.0,0.0,0.0,0.0,0.0,0.0,0.0,0.0,0.0,0.0,0.0,0.0,0.0,0.0,0.0,0.0,0.0,0.0,0.0,0.0,0.0,0.0,0.0,0.0,0.0,0.0,0.0,0.0,0.0,0.0,0.0,0.0,0.0,0.0,0.0,0.0,0.0,0.0,0.0,0.0,0.0,0.0,0.0,0.0,0.0,0.0,0.0,0.0,0.0,0.0,0.0,0.0,0.0,0.0,0.0,0.0,0.0,0.0,0.0,0.0,0.0,0.0,0.0,0.0,0.0,0.0,0.0,0.0,0.0
0.7482889041199647,0.7654916315832736,0.7675155915841331,0.7566604047084247,0.73610183548852,0.7098845243574332,0.6821460785537033,0.6554342746671853,0.6330768771512539,0.6163843405368274,0.6053383143203762,0.5988005255241333,0.5938930004633719,0.589670903051717,0.584784796461281,0.5785714134194877,0.5711088799725859,0.5621364576944604,0.5536712035179124,0.5470861049126529,0.5434855326059249,0.5434172344210383,0.5458941149050304,0.5510714488613452,0.55809571819503,0.5660091870732342,0.5739605387378637,0.5805402549860095,0.5864046464505372,0.5919377920147229,0.5977614231650997,0.6045038430546891,0.61178238678784,0.6205274304361779,0.6306624248192975,0.641795011019696,0.6533237333937323,0.6638017662855628,0.6736424760515051,0.6829491645757884,0.6922034393253574,0.7021436237327755,0.7127288906333475,0.7254409791895593,0.7406950816659335,0.7583486158074724,0.7776441357362873,0.7963985113084747,0.814215516093003,0.8299621861992994,0.8429538145440865,0.8531446477397991,0.8601106125176083,0.8661989772236102,0.8727975436279721,0.8809780474315899,0.8911359585606803,0.9017985431676716,0.9127994305425827,0.9223441442140762,0.9283899085671513,0.9291272693815613,0.9224801226757495,0.9093834651694251,0.8908818472331879,0.8688195778459292,0.8454430356986702,0.8220277871751567,0.8013084394885397,0.7843685179440617,0.7713920103241719,0.761758802015779,0.7534487612189906,0.7461169817428158,0.7387449728811348,0.730695787992814,0.7218177288353377,0.7115688886748549,0.7015957079103314,0.6928250398115103,0.68607587907082,0.6818766556548965,0.6795203348497479,0.6797443270865875,0.682062661361917,0.6857327148336447,0.6899133324315332,0.6929603133583335,0.6953590148293011,0.6969297849312284,0.6977203619340921,0.6979500092081699,0.6970206054303412,0.6963169845674062,0.6961161840028288,0.6964776024564067,0.6972569436818292,0.6972421192805157,0.6972919298443696,0.6972438482316764,0.6969977740439929,0.6965638781554886,0.695095924174759,0.6940227503685912,0.6935947884866785,0.6938910493514118,0.6947937488327641,0.6950519162292834,0.6954715087225865,0.6955999491388125,0.6949274545412775,0.6930236195100398,0.6887177254594378,0.6832635084625991,0.6769281737782298,0.6700619864792604,0.6630571331990146,0.6554083136893976,0.6485560755956875,0.6426593178059391,0.6376088478099718,0.6330906468879893,0.6278630839732354,0.622592617643754,0.6170264515306876,0.6110164634847739,0.6045858241080185,0.5971222319947598,0.5900614940887975,0.583932172203943,0.5791775593561252,0.5760810013280476,0.5738850786243068,0.5734829629994995,0.5746090627255402,0.5767881830261655,0.579434072005857,0.5811977043658398,0.582586055889114,0.583348874057044,0.5833888008995419,0.582787142683666,0.5810872924062187,0.0,0.0,0.0,0.0,0.0,0.0,0.0,0.0,0.0,0.0,0.0,0.0,0.0,0.0,0.0,0.0,0.0,0.0,0.0,0.0,0.0,0.0,0.0,0.0,0.0,0.0,0.0,0.0,0.0,0.0,0.0,0.0,0.0,0.0,0.0,0.0,0.0,0.0,0.0,0.0,0.0,0.0,0.0,0.0,0.0,0.0,0.0,0.0,0.0,0.0,0.0,0.0,0.0,0.0,0.0,0.0,0.0,0.0,0.0,0.0,0.0,0.0,0.0,0.0,0.0,0.0,0.0,0.0,0.0,0.0,0.0,0.0,0.0,0.0,0.0,0.0,0.0,0.0,0.0,0.0,0.0,0.0,0.0,0.0,0.0,0.0,0.0,0.0,0.0,0.0,0.0,0.0,0.0,0.0,0.0,0.0,0.0,0.0,0.0,0.0,0.0,0.0,0.0,0.0,0.0,0.0,0.0,0.0,0.0,0.0,0.0,0.0,0.0,0.0,0.0,0.0,0.0,0.0,0.0,0.0,0.0,0.0,0.0,0.0,0.0,0.0,0.0,0.0,0.0,0.0,0.0,0.0,0.0,0.0,0.0,0.0,0.0,0.0,0.0,0.0,0.0,0.0,0.0,0.0,0.0,0.0,0.0,0.0,0.0,0.0,0.0,0.0,0.0,0.0,0.0,0.0,0.0
0.2995698617838903,0.35991295321914574,0.40201296750364124,0.422306321370698,0.41932992917819306,0.3950664869689413,0.3538093395763234,0.3015900882588213,0.24515397661560934,0.19038126526460722,0.14278558865043536,0.10589990936891354,0.08117205187769942,0.0680016318605207,0.06357896370375862,0.06516239453303657,0.06970620474908415,0.07474252258846084,0.0787445090350178,0.08078326819520125,0.08158732963689891,0.08239809258169876,0.08465125678278428,0.0894873862095149,0.09710507028972411,0.10746802629859956,0.11994355940342454,0.1335909323118285,0.14741771264501763,0.1603269637461679,0.172113218330782,0.18305548096117372,0.19385272173852958,0.20534803908052038,0.21792660593807184,0.2320887301160688,0.24787869311434074,0.26493534792699514,0.2825761187966362,0.2996785891028507,0.3157815019060095,0.3308047669230756,0.3451952801210381,0.35980419851275197,0.3753091407477162,0.3927880701764371,0.4128689005773032,0.4355670509846243,0.4601584098963001,0.48478249242729804,0.5082393728728916,0.5291178075614345,0.5465603726642877,0.5605126212798482,0.5710986284322386,0.5804979569861629,0.5904598110296009,0.6023981309559727,0.6168928723778166,0.6327895796269526,0.6489684240848875,0.6629624815961578,0.6719306775930128,0.673273123475785,0.6647204234958677,0.6462893955708231,0.619202263275693,0.5860042395293821,0.550054674658987,0.5143495485343115,0.48243948317339463,0.45665647059364983,0.43815189978058544,0.4268362258421892,0.42103376663069336,0.4194538258132448,0.4203140797314655,0.42205793311826867,0.4235753770140188,0.4237121482749516,0.42293710155120057,0.42171249566058877,0.4206616706997118,0.42031452818584847,0.42032300006203405,0.42123058163622784,0.42287703877596006,0.42494946151365404,0.42709156609392723,0.4283565532822285,0.42933524263066647,0.43030026646701336,0.43167119206481336,0.433868604002006,0.43644547916003285,0.44023196939161324,0.4451816857561344,0.45101354685631406,0.45728002568314435,0.4626823040694132,0.4677100350450244,0.4722936036038636,0.476544034998676,0.4806914473642827,0.4841141005061833,0.488027351154159,0.49265544488026075,0.4980202230246505,0.5039367389520188,0.5091314798541174,0.5142783542647843,0.5191318434686062,0.5234819295682791,0.527182030539755,0.5291821436774473,0.5306583313796318,0.5318528349182085,0.5330015051192782,0.5342917425896413,0.5349020681186613,0.5358983641665769,0.5373704928186767,0.5392688250508473,0.5414014546395276,0.542597764250609,0.543487263109592,0.544022658183027,0.5442576656575788,0.5443319728037742,0.5435903585450158,0.5431737950837683,0.5434759585964578,0.5447962708512063,0.5472624909680208,0.549973632768078,0.5535751134359173,0.5578819257895208,0.5626435627837847,0.5675861451346482,0.5716096410186217,0.5754792366801047,0.5793397579506728,0.5834115463206787,0.0,0.0,0.0,0.0,0.0,0.0,0.0,0.0,0.0,0.0,0.0,0.0,0.0,0.0,0.0,0.0,0.0,0.0,0.0,0.0,0.0,0.0,0.0,0.0,0.0,0.0,0.0,0.0,0.0,0.0,0.0,0.0,0.0,0.0,0.0,0.0,0.0,0.0,0.0,0.0,0.0,0.0,0.0,0.0,0.0,0.0,0.0,0.0,0.0,0.0,0.0,0.0,0.0,0.0,0.0,0.0,0.0,0.0,0.0,0.0,0.0,0.0,0.0,0.0,0.0,0.0,0.0,0.0,0.0,0.0,0.0,0.0,0.0,0.0,0.0,0.0,0.0,0.0,0.0,0.0,0.0,0.0,0.0,0.0,0.0,0.0,0.0,0.0,0.0,0.0,0.0,0.0,0.0,0.0,0.0,0.0,0.0,0.0,0.0,0.0,0.0,0.0,0.0,0.0,0.0,0.0,0.0,0.0,0.0,0.0,0.0,0.0,0.0,0.0,0.0,0.0,0.0,0.0,0.0,0.0,0.0,0.0,0.0,0.0,0.0,0.0,0.0,0.0,0.0,0.0,0.0,0.0,0.0,0.0,0.0,0.0,0.0,0.0,0.0,0.0,0.0,0.0,0.0,0.0,0.0,0.0,0.0,0.0,0.0,0.0,0.0,0.0,0.0,0.0,0.0,0.0,0.0
-0.04452438719144263,-0.05479894232917767,-0.058845322285991625,-0.05898639171161623,-0.05774272403557943,-0.057194786262398226,-0.05884690516980875,-0.06206233589606031,-0.06596962484667453,-0.06911322780295409,-0.06986518533335381,-0.0672124670810334,-0.0598630040635391,-0.048077781703703665,-0.03301261872463619,-0.016402813407705094,-0.0004997738408476498,0.013612539103241091,0.024799756171816636,0.032562918940330136,0.03705955851794364,0.03859609890453123,0.03868227870523993,0.03836703774728173,0.03846457287686486,0.03940269487912199,0.04072882916244501,0.042504135373605714,0.04395834705374977,0.044069041825153234,0.04174583124030035,0.03557683894216429,0.02553285498841541,0.011697345641296706,-0.0052228009340803535,-0.023948059024209812,-0.04322557443135842,-0.06078018296396899,-0.07497222085535273,-0.08470738176912092,-0.08964194928871996,-0.0905877640720799,-0.08818395553082603,-0.08380472114706926,-0.0788277721269732,-0.07429990158034898,-0.07095537313949785,-0.06844356347206733,-0.06614202795598842,-0.06322238555265385,-0.058957853871978,-0.05307640452766452,-0.04560731951063121,-0.03700561958719889,-0.02796163381047629,-0.019164858799802356,-0.011166236049906799,-0.003912734554326401,0.003145557489987387,0.010960216967518636,0.02062813627237329,0.03296377892560427,0.04851342551378591,0.06722211830753104,0.08840700514218004,0.11086918553359716,0.1329917044925111,0.1535539681588402,0.17173113002642054,0.1873887069339089,0.20111023479482104,0.2138191776079108,0.227087504130756,0.24219664926852658,0.2598647621228292,0.27994607761030543,0.3011039319958089,0.32167609436418626,0.33946014759155146,0.35234578997456156,0.35878192042578977,0.3578661876194349,0.3502735752228815,0.33751034927412377,0.3217373252385771,0.3052678966964413,0.28981051047382206,0.27676252247113575,0.2665092214829757,0.2585581725683284,0.25175387296709273,0.24442088920789562,0.23538677050517504,0.22397214898607465,0.21022884320883883,0.19490169285199865,0.17899033999736758,0.16409902721044328,0.15168882635243083,0.14284515070066395,0.1380495127369046,0.13685531499999998,0.13867347091454116,0.1425102397403234,0.14730276038567514,0.15212563910832141,0.15606177623946008,0.15908555011317718,0.1614364590654442,0.16362085384850444,0.16620176547973825,0.1692851893793136,0.17331188417765944,0.17828472902785386,0.1839758017668004,0.18999788158182415,0.1955229216020408,0.20060128433181415,0.20520384182727433,0.2095043106087118,0.21379399768391005,0.21788812765124688,0.2224905712739861,0.22777044535324747,0.23371020698358744,0.24010619702476638,0.24606552726331823,0.25182262649886394,0.25718473810273956,0.2620533485043572,0.2664183963656227,0.26969770264570814,0.27269489893184995,0.2756399993428767,0.2787189549570165,0.28203142688126254,0.2849779932259168,0.28810020861614544,0.2913441277617052,0.29458586397223674,0.29764445739690226,0.29976751751722597,0.30136862761697897,0.0,0.0,0.0,0.0,0.0,0.0,0.0,0.0,0.0,0.0,0.0,0.0,0.0,0.0,0.0,0.0,0.0,0.0,0.0,0.0,0.0,0.0,0.0,0.0,0.0,0.0,0.0,0.0,0.0,0.0,0.0,0.0,0.0,0.0,0.0,0.0,0.0,0.0,0.0,0.0,0.0,0.0,0.0,0.0,0.0,0.0,0.0,0.0,0.0,0.0,0.0,0.0,0.0,0.0,0.0,0.0,0.0,0.0,0.0,0.0,0.0,0.0,0.0,0.0,0.0,0.0,0.0,0.0,0.0,0.0,0.0,0.0,0.0,0.0,0.0,0.0,0.0,0.0,0.0,0.0,0.0,0.0,0.0,0.0,0.0,0.0,0.0,0.0,0.0,0.0,0.0,0.0,0.0,0.0,0.0,0.0,0.0,0.0,0.0,0.0,0.0,0.0,0.0,0.0,0.0,0.0,0.0,0.0,0.0,0.0,0.0,0.0,0.0,0.0,0.0,0.0,0.0,0.0,0.0,0.0,0.0,0.0,0.0,0.0,0.0,0.0,0.0,0.0,0.0,0.0,0.0,0.0,0.0,0.0,0.0,0.0,0.0,0.0,0.0,0.0,0.0,0.0,0.0,0.0,0.0,0.0,0.0,0.0,0.0,0.0,0.0,0.0,0.0,0.0,0.0,0.0,0.0
0.8127012255432179,0.8381759497523555,0.8513511849433364,0.8507801571706642,0.8384903104047938,0.817098972457167,0.7900957934087721,0.7612101293929636,0.7328591102534904,0.7085754841029763,0.690012882397079,0.6776798250877367,0.6710690738425908,0.6680084486864607,0.6679728414750156,0.6696395969172212,0.6719502215020073,0.674204154707657,0.6752384227249055,0.6758662474076004,0.6762938018539942,0.6767381449061873,0.6773392355727234,0.6774624831554663,0.6778281192186525,0.6784173727961542,0.6791621927739556,0.6799775457271607,0.6801884321619894,0.6804925070012204,0.6809540251807386,0.6816393938004749,0.6826158558815979,0.6834003275278935,0.6846989178781333,0.6864727007571001,0.6885482558928526,0.6906697848833159,0.6920786728571828,0.6933443243690443,0.6945928618024523,0.6961861027162535,0.6987237138850338,0.7024470065018196,0.7087006023431137,0.7178386965013578,0.7296410570735858,0.7432568773020366,0.7567554262189637,0.7693049173927068,0.7793193424368897,0.7856210844688315,0.7877900407190392,0.7856887445082884,0.7815102237289849,0.7768229939793445,0.7730090536691556,0.770863053976573,0.7697719391898445,0.7695606320983964,0.7683693270159273,0.7638828029200303,0.7539360672341067,0.7366198661335231,0.7123310617494086,0.6818814071082384,0.6470505012679713,0.6102509041868796,0.57360324628501,0.5400385520540452,0.5109350698522711,0.48663787704852995,0.4665657411396524,0.44907536255446895,0.4333944413358534,0.418088506673014,0.4020877128024311,0.38494108876779404,0.3664851769970578,0.34818732154946735,0.33102332548159114,0.3158708208289901,0.30331643639593575,0.2931683075879772,0.2858200578438118,0.28052932135182657,0.27628065742552566,0.27208614700160116,0.26688180031346354,0.26103518125594005,0.2545592515640426,0.247701062160248,0.24085585760726663,0.234088875792772,0.2283485665920223,0.2235981357411686,0.21950782157168533,0.2156172232809764,0.2111471957648782,0.20652482058456442,0.20156011346165884,0.19616416110688847,0.1903785889546862,0.18397675933933486,0.17785582300797514,0.17201003466497636,0.16628124232008193,0.16048131575245633,0.15413189072937367,0.14796659805591128,0.14198956632914503,0.13619111254711302,0.1305840425502265,0.12483960981706854,0.11970133591163627,0.11505143514982488,0.11065547542086689,0.10627648836212482,0.10150211005732568,0.09681068389813256,0.09209383486675338,0.08719774246346866,0.08196893417402314,0.07614774059143933,0.07003919757841857,0.06353678228141757,0.056567475583250315,0.0491784640306448,0.04149293517841046,0.034126388893694924,0.027366949905150283,0.02141937425630422,0.016387993887266465,0.012241208871724347,0.00904566648985876,0.006493055656200932,0.004198583651266126,0.0018228092738491366,-0.0008786987159502879,-0.003751059783183106,-0.006753102380656844,-0.009789111199405752,-0.012742375339568195,0.0,0.0,0.0,0.0,0.0,0.0,0.0,0.0,0.0,0.0,0.0,0.0,0.0,0.0,0.0,0.0,0.0,0.0,0.0,0.0,0.0,0.0,0.0,0.0,0.0,0.0,0.0,0.0,0.0,0.0,0.0,0.0,0.0,0.0,0.0,0.0,0.0,0.0,0.0,0.0,0.0,0.0,0.0,0.0,0.0,0.0,0.0,0.0,0.0,0.0,0.0,0.0,0.0,0.0,0.0,0.0,0.0,0.0,0.0,0.0,0.0,0.0,0.0,0.0,0.0,0.0,0.0,0.0,0.0,0.0,0.0,0.0,0.0,0.0,0.0,0.0,0.0,0.0,0.0,0.0,0.0,0.0,0.0,0.0,0.0,0.0,0.0,0.0,0.0,0.0,0.0,0.0,0.0,0.0,0.0,0.0,0.0,0.0,0.0,0.0,0.0,0.0,0.0,0.0,0.0,0.0,0.0,0.0,0.0,0.0,0.0,0.0,0.0,0.0,0.0,0.0,0.0,0.0,0.0,0.0,0.0,0.0,0.0,0.0,0.0,0.0,0.0,0.0,0.0,0.0,0.0,0.0,0.0,0.0,0.0,0.0,0.0,0.0,0.0,0.0,0.0,0.0,0.0,0.0,0.0,0.0,0.0,0.0,0.0,0.0,0.0,0.0,0.0,0.0,0.0,0.0,0.0
0.418088506673014,0.4020877128024311,0.38494108876779404,0.3664851769970578,0.34818732154946735,0.33102332548159114,0.3158708208289901,0.30331643639593575,0.2931683075879772,0.2858200578438118,0.28052932135182657,0.27628065742552566,0.27208614700160116,0.26688180031346354,0.26103518125594005,0.2545592515640426,0.247701062160248,0.24085585760726663,0.234088875792772,0.2283485665920223,0.2235981357411686,0.21950782157168533,0.2156172232809764,0.2111471957648782,0.20652482058456442,0.20156011346165884,0.19616416110688847,0.1903785889546862,0.18397675933933486,0.17785582300797514,0.17201003466497636,0.16628124232008193,0.16048131575245633,0.15413189072937367,0.14796659805591128,0.14198956632914503,0.13619111254711302,0.1305840425502265,0.12483960981706854,0.11970133591163627,0.11505143514982488,0.11065547542086689,0.10627648836212482,0.10150211005732568,0.09681068389813256,0.09209383486675338,0.08719774246346866,0.08196893417402314,0.07614774059143933,0.07003919757841857,0.06353678228141757,0.056567475583250315,0.0491784640306448,0.04149293517841046,0.034126388893694924,0.027366949905150283,0.02141937425630422,0.016387993887266465,0.012241208871724347,0.00904566648985876,0.006493055656200932,0.004198583651266126,0.0018228092738491366,-0.0008786987159502879,-0.003751059783183106,-0.006753102380656844,-0.009789111199405752,-0.012742375339568195,-0.015580801465887419,-0.018093567245967588,-0.02039053391433751,-0.02266409936299719,-0.02509710963567359,-0.027875448974304003,-0.0307317492400863,-0.03347635262864471,-0.03582592328665596,-0.037451843931778986,-0.03819318461003309,-0.03763392107235689,-0.03575430664994133,-0.03275270286055632,-0.029025075604264334,-0.02518806428618844,-0.02174862011005329,-0.019413933224271457,-0.018855445387689542,-0.020598307276749685,-0.0249180347521531,-0.031732319574577346,-0.04075046197900606,-0.0514017255781971,-0.06288689734895422,-0.07427578686641621,-0.08464418207529945,-0.09336591650805151,-0.10016923189649579,-0.10517548742115876,-0.10883502183776332,-0.11180649332419075,-0.11484960583834762,-0.11856356307935502,-0.12319647600167684,-0.1285451116093487,-0.13394292425508678,-0.13847516927481643,-0.14116513271215944,-0.14121746458219492,-0.1382458680443472,-0.13231755726277591,-0.12401469308923804,-0.11427868244765634,-0.10418547593969231,-0.09476763643958047,-0.08654310781528671,-0.07956610859496224,-0.0733803480817266,-0.06715348729718969,-0.06004919437251633,-0.0510794761649014,-0.039657322964214786,-0.025721997134870812,-0.009840515730094439,0.0065991366631018185,0.022166455828466086,0.03517139753386207,0.044024391871995285,0.04747245583700082,0.04450674803664812,0.035346599710561685,0.020876225037342284,0.0026718681691246236,-0.017249675632285046,-0.03703064480074216,-0.05454943098309562,-0.06828550126637833,-0.07742533641181444,-0.0819718071015709,-0.08292342151348774,-0.0813492828668757,-0.07857154718761208,-0.07572354943869293,-0.07351508519674706,0.0,0.0,0.0,0.0,0.0,0.0,0.0,0.0,0.0,0.0,0.0,0.0,0.0,0.0,0.0,0.0,0.0,0.0,0.0,0.0,0.0,0.0,0.0,0.0,0.0,0.0,0.0,0.0,0.0,0.0,0.0,0.0,0.0,0.0,0.0,0.0,0.0,0.0,0.0,0.0,0.0,0.0,0.0,0.0,0.0,0.0,0.0,0.0,0.0,0.0,0.0,0.0,0.0,0.0,0.0,0.0,0.0,0.0,0.0,0.0,0.0,0.0,0.0,0.0,0.0,0.0,0.0,0.0,0.0,0.0,0.0,0.0,0.0,0.0,0.0,0.0,0.0,0.0,0.0,0.0,0.0,0.0,0.0,0.0,0.0,0.0,0.0,0.0,0.0,0.0,0.0,0.0,0.0,0.0,0.0,0.0,0.0,0.0,0.0,0.0,0.0,0.0,0.0,0.0,0.0,0.0,0.0,0.0,0.0,0.0,0.0,0.0,0.0,0.0,0.0,0.0,0.0,0.0,0.0,0.0,0.0,0.0,0.0,0.0,0.0,0.0,0.0,0.0,0.0,0.0,0.0,0.0,0.0,0.0,0.0,0.0,0.0,0.0,0.0,0.0,0.0,0.0,0.0,0.0,0.0,0.0,0.0,0.0,0.0,0.0,0.0,0.0,0.0,0.0,0.0,0.0,0.0
0.23491935941839825,0.2582592686621247,0.2824392517625258,0.30562076296173135,0.325646199979994,0.3406071299281389,0.34924649764186416,0.35096180869268007,0.3466501562446775,0.3378900908114777,0.32674306315327223,0.3152703465478817,0.3048222840761671,0.2964486045228638,0.29024759467294936,0.2855760976765554,0.2812941954538993,0.2758738949625165,0.26843764111316604,0.25860967646841704,0.2466843362811457,0.2335153964868277,0.22002133308533303,0.2075931979784275,0.19735439679538877,0.1900161480690281,0.18573659751975619,0.18385920470254774,0.18378273176647053,0.1846838731915691,0.18582093141955425,0.1866738468468533,0.18670331530835949,0.18626101856703758,0.18584781590317648,0.18610619902589817,0.18761109617395041,0.1903254478544067,0.19458451423230688,0.2002463731155761,0.20694322592210668,0.2141516861321258,0.22084828497663672,0.22695298836654698,0.23227823390787805,0.23682244417515835,0.24069227609030122,0.243487778507836,0.2458281607686242,0.247913555290521,0.24989705887613142,0.2518755447609934,0.2533472227446094,0.25497309408707386,0.2569812219892192,0.2596116789394516,0.2630588134316856,0.2668217094995014,0.2715409342784234,0.27716994929121336,0.28352945212534253,0.29033065226275656,0.2966335707162827,0.30271455627445076,0.30835616529535226,0.3133728643313335,0.3176024910938276,0.3203362618185101,0.32210693991259987,0.32304117093660656,0.323353414329155,0.32333004339141597,0.3227462393579866,0.32255955042273116,0.3232827316494743,0.32535702675198513,0.32905759568900433,0.3338759880805643,0.3401751562453579,0.34772100516097515,0.3561344555892699,0.36493711091097775,0.3729292805618943,0.3803976825932428,0.3873607665958157,0.3940514702968101,0.40081662613295116,0.4071461684964722,0.4141136816192982,0.4221213910777847,0.43136191063587176,0.4416976231939789,0.4518625833668449,0.46177228547846283,0.4706726309102528,0.4778159074107865,0.4825786202550067,0.4839249496294891,0.48246946606206115,0.4787139779902908,0.47347284815699053,0.4677071195880308,0.46171860605924125,0.4568647273719357,0.45370737564637115,0.45243140513303415,0.45283561892105495,0.4538307249587864,0.4553810130040561,0.45700501637346963,0.45838566905463923,0.4594276674687168,0.4596761565789713,0.4600449172091279,0.46100843195050745,0.46295055563073456,0.46601971601637865,0.469473953821078,0.4734759019617328,0.47746975657825796,0.4808653763598752,0.48325496470858464,0.4840559515839304,0.4845300028957136,0.4860804576627116,0.4906637111907232,0.5004902134007907,0.5169859330944025,0.5421797680301708,0.5764304540664446,0.6186370451789305,0.6661528929978701,0.7143397990889687,0.759204417252343,0.79610990459195,0.8211508836211024,0.8318155725949492,0.8266651888292531,0.8077586900760316,0.77815523405251,0.7419879266584442,0.7036916297219479,0.6664668482734609,0.0,0.0,0.0,0.0,0.0,0.0,0.0,0.0,0.0,0.0,0.0,0.0,0.0,0.0,0.0,0.0,0.0,0.0,0.0,0.0,0.0,0.0,0.0,0.0,0.0,0.0,0.0,0.0,0.0,0.0,0.0,0.0,0.0,0.0,0.0,0.0,0.0,0.0,0.0,0.0,0.0,0.0,0.0,0.0,0.0,0.0,0.0,0.0,0.0,0.0,0.0,0.0,0.0,0.0,0.0,0.0,0.0,0.0,0.0,0.0,0.0,0.0,0.0,0.0,0.0,0.0,0.0,0.0,0.0,0.0,0.0,0.0,0.0,0.0,0.0,0.0,0.0,0.0,0.0,0.0,0.0,0.0,0.0,0.0,0.0,0.0,0.0,0.0,0.0,0.0,0.0,0.0,0.0,0.0,0.0,0.0,0.0,0.0,0.0,0.0,0.0,0.0,0.0,0.0,0.0,0.0,0.0,0.0,0.0,0.0,0.0,0.0,0.0,0.0,0.0,0.0,0.0,0.0,0.0,0.0,0.0,0.0,0.0,0.0,0.0,0.0,0.0,0.0,0.0,0.0,0.0,0.0,0.0,0.0,0.0,0.0,0.0,0.0,0.0,0.0,0.0,0.0,0.0,0.0,0.0,0.0,0.0,0.0,0.0,0.0,0.0,0.0,0.0,0.0,0.0,0.0,0.0
0.79610990459195,0.8211508836211024,0.8318155725949492,0.8266651888292531,0.8077586900760316,0.77815523405251,0.7419879266584442,0.7036916297219479,0.6664668482734609,0.6340819290670104,0.6081981887173656,0.5890272444434613,0.5755676868489467,0.5652647364497718,0.5570323366265012,0.549296512218239,0.5410507383487421,0.5319629390079607,0.5216134734669727,0.5114159799928665,0.502161020455166,0.49441569377546724,0.4883581911669748,0.48318940927207377,0.47904536193422964,0.47529268758287857,0.471342458906244,0.46684585322154476,0.4613158560129053,0.45575804158026506,0.45081424151037264,0.44716071625999787,0.4453335152761147,0.44515466007577126,0.4470920536573803,0.45065780053084353,0.45507344860707377,0.4594992229437183,0.46286784064257924,0.46552559796640874,0.4677134677448628,0.4701014421804615,0.473664930611322,0.4790334471075002,0.4876151349698556,0.4996820261523338,0.5147717976007522,0.5317297133061751,0.548435225106437,0.5638665005212176,0.5764536759880207,0.5851662608159856,0.5897944960010282,0.5904420795200906,0.5893490000417253,0.5880497447040265,0.5877917565680136,0.5891943269363502,0.5915651366423884,0.5945978299505349,0.5965005683663854,0.5951396230954974,0.5885941578716725,0.575267340804129,0.5556075644726037,0.5304729613836934,0.5015573902642465,0.47105858978683424,0.44089198784426975,0.41346861879001484,0.38983516477757063,0.37009111488970015,0.353523021701996,0.3386184784645733,0.3245017545486114,0.3099600698522418,0.2942258964770817,0.27716933499133556,0.259058009310703,0.24134113308469105,0.22514368158856346,0.21143238817835308,0.20081564828067508,0.1932143902655428,0.18868752229493232,0.1864107131112778,0.18530255424116507,0.18430942230722516,0.18242538292534616,0.1797121046412085,0.176155179738179,0.17203119629625332,0.16780319633377525,0.163733038550231,0.16064282915197933,0.15859816895227288,0.15735515800213437,0.15647761315773895,0.15521917595108156,0.15369101564086599,0.15158458137744527,0.1487326623024444,0.14515202998170265,0.14072242073271313,0.13626871346575514,0.13195827457410045,0.12782721189810609,0.12382625729770153,0.11961278529595414,0.11561188224672964,0.11160703847878105,0.10731937130650604,0.10250048461370041,0.0967863827149349,0.09063753622429922,0.08401661333052021,0.07693029636797988,0.06949453367843311,0.06180348884891356,0.05454555149321583,0.04790902767634273,0.04192604101182112,0.03648858274316582,0.03130520008693884,0.026367536467450225,0.02132685525420615,0.015882829952882975,0.009911648141881852,0.0034913660953777236,-0.0028211563007939206,-0.008576545499144834,-0.013317794976274855,-0.01666528645940211,-0.01841477569283016,-0.018446108596223608,-0.017063350017219522,-0.014788238636805014,-0.012230920191783408,-0.010185348214474534,-0.00872253392069871,-0.007936831413749764,-0.007711838642073119,-0.007796553924164706,0.0,0.0,0.0,0.0,0.0,0.0,0.0,0.0,0.0,0.0,0.0,0.0,0.0,0.0,0.0,0.0,0.0,0.0,0.0,0.0,0.0,0.0,0.0,0.0,0.0,0.0,0.0,0.0,0.0,0.0,0.0,0.0,0.0,0.0,0.0,0.0,0.0,0.0,0.0,0.0,0.0,0.0,0.0,0.0,0.0,0.0,0.0,0.0,0.0,0.0,0.0,0.0,0.0,0.0,0.0,0.0,0.0,0.0,0.0,0.0,0.0,0.0,0.0,0.0,0.0,0.0,0.0,0.0,0.0,0.0,0.0,0.0,0.0,0.0,0.0,0.0,0.0,0.0,0.0,0.0,0.0,0.0,0.0,0.0,0.0,0.0,0.0,0.0,0.0,0.0,0.0,0.0,0.0,0.0,0.0,0.0,0.0,0.0,0.0,0.0,0.0,0.0,0.0,0.0,0.0,0.0,0.0,0.0,0.0,0.0,0.0,0.0,0.0,0.0,0.0,0.0,0.0,0.0,0.0,0.0,0.0,0.0,0.0,0.0,0.0,0.0,0.0,0.0,0.0,0.0,0.0,0.0,0.0,0.0,0.0,0.0,0.0,0.0,0.0,0.0,0.0,0.0,0.0,0.0,0.0,0.0,0.0,0.0,0.0,0.0,0.0,0.0,0.0,0.0,0.0,0.0,0.0
0.3245017545486114,0.3099600698522418,0.2942258964770817,0.27716933499133556,0.259058009310703,0.24134113308469105,0.22514368158856346,0.21143238817835308,0.20081564828067508,0.1932143902655428,0.18868752229493232,0.1864107131112778,0.18530255424116507,0.18430942230722516,0.18242538292534616,0.1797121046412085,0.176155179738179,0.17203119629625332,0.16780319633377525,0.163733038550231,0.16064282915197933,0.15859816895227288,0.15735515800213437,0.15647761315773895,0.15521917595108156,0.15369101564086599,0.15158458137744527,0.1487326623024444,0.14515202998170265,0.14072242073271313,0.13626871346575514,0.13195827457410045,0.12782721189810609,0.12382625729770153,0.11961278529595414,0.11561188224672964,0.11160703847878105,0.10731937130650604,0.10250048461370041,0.0967863827149349,0.09063753622429922,0.08401661333052021,0.07693029636797988,0.06949453367843311,0.06180348884891356,0.05454555149321583,0.04790902767634273,0.04192604101182112,0.03648858274316582,0.03130520008693884,0.026367536467450225,0.02132685525420615,0.015882829952882975,0.009911648141881852,0.0034913660953777236,-0.0028211563007939206,-0.008576545499144834,-0.013317794976274855,-0.01666528645940211,-0.01841477569283016,-0.018446108596223608,-0.017063350017219522,-0.014788238636805014,-0.012230920191783408,-0.010185348214474534,-0.00872253392069871,-0.007936831413749764,-0.007711838642073119,-0.007796553924164706,-0.008369731565376121,-0.00870322115703792,-0.008507711119094163,-0.0076330159301409226,-0.006118915206344818,-0.0045402369281957785,-0.003005068931279937,-0.0020535780837153475,-0.0023202638285972515,-0.0044412764885249315,-0.00910890850630111,-0.01637674053805425,-0.02614615095985228,-0.037923727066775874,-0.05084727549382498,-0.06397326241143171,-0.07594233544969063,-0.08576759421099497,-0.09288015987653403,-0.09725327449912502,-0.09954956001242961,-0.10046040514892567,-0.10094910680282249,-0.10181138348233434,-0.10344465627018652,-0.1059372087277931,-0.10854727474820332,-0.11045147435219069,-0.11091993415092224,-0.10963603804124807,-0.10711640952698506,-0.10403705325702502,-0.10155341948989452,-0.10076406875242767,-0.10225513088159764,-0.10596968593811697,-0.11016777274482266,-0.11210023694179132,-0.10822765119600489,-0.09487422372194722,-0.0693426371972187,-0.029715013091761895,0.02387563480064719,0.08913627422994341,0.16169816321368846,0.23515609181339006,0.3031562975659133,0.35940522030300864,0.39882648653421665,0.4182705501493241,0.4163732821485844,0.3952259199520918,0.3588300947261907,0.3127027226692504,0.2629375740331302,0.21467512381365111,0.1729043933275062,0.14067304165307679,0.11913261980832812,0.10760459791693623,0.10340973618921157,0.1041326422684841,0.10707283642440098,0.11011376849475095,0.11203948722820768,0.11211733618944254,0.11129719924687423,0.1108743610001068,0.11225122710201968,0.11647437653947908,0.12353233548160661,0.13337194155767518,0.14528942159494568,0.15831396379074267,0.0,0.0,0.0,0.0,0.0,0.0,0.0,0.0,0.0,0.0,0.0,0.0,0.0,0.0,0.0,0.0,0.0,0.0,0.0,0.0,0.0,0.0,0.0,0.0,0.0,0.0,0.0,0.0,0.0,0.0,0.0,0.0,0.0,0.0,0.0,0.0,0.0,0.0,0.0,0.0,0.0,0.0,0.0,0.0,0.0,0.0,0.0,0.0,0.0,0.0,0.0,0.0,0.0,0.0,0.0,0.0,0.0,0.0,0.0,0.0,0.0,0.0,0.0,0.0,0.0,0.0,0.0,0.0,0.0,0.0,0.0,0.0,0.0,0.0,0.0,0.0,0.0,0.0,0.0,0.0,0.0,0.0,0.0,0.0,0.0,0.0,0.0,0.0,0.0,0.0,0.0,0.0,0.0,0.0,0.0,0.0,0.0,0.0,0.0,0.0,0.0,0.0,0.0,0.0,0.0,0.0,0.0,0.0,0.0,0.0,0.0,0.0,0.0,0.0,0.0,0.0,0.0,0.0,0.0,0.0,0.0,0.0,0.0,0.0,0.0,0.0,0.0,0.0,0.0,0.0,0.0,0.0,0.0,0.0,0.0,0.0,0.0,0.0,0.0,0.0,0.0,0.0,0.0,0.0,0.0,0.0,0.0,0.0,0.0,0.0,0.0,0.0,0.0,0.0,0.0,0.0,0.0
0.23515609181339006,0.3031562975659133,0.35940522030300864,0.39882648653421665,0.4182705501493241,0.4163732821485844,0.3952259199520918,0.3588300947261907,0.3127027226692504,0.2629375740331302,0.21467512381365111,0.1729043933275062,0.14067304165307679,0.11913261980832812,0.10760459791693623,0.10340973618921157,0.1041326422684841,0.10707283642440098,0.11011376849475095,0.11203948722820768,0.11211733618944254,0.11129719924687423,0.1108743610001068,0.11225122710201968,0.11647437653947908,0.12353233548160661,0.13337194155767518,0.14528942159494568,0.15831396379074267,0.17146390558791738,0.18360509858816074,0.19467355469358683,0.2050056752848737,0.21532510797890567,0.22645343463635573,0.23863985592851744,0.25236171348301634,0.26757042761945493,0.2838360506050696,0.3004622605963041,0.31630999034704266,0.33116722077488303,0.3452254767725584,0.359262962769959,0.3744710865562525,0.39171835246331244,0.4123636441486969,0.43708744961176016,0.4657576812343917,0.4972735735584658,0.5290954981845438,0.5592908267529658,0.5855509644326117,0.6061025631697665,0.6200760605606791,0.6269659260888544,0.6287619155072522,0.6274572573260627,0.625197003926481,0.623736188796516,0.6233894348900911,0.6247298532637381,0.6268930209097039,0.628362027979396,0.627396317032353,0.6219760304618576,0.6118019331091892,0.5971652042269223,0.5792461249796776,0.5598108715433736,0.5402601161431135,0.522780945978904,0.5086835275016688,0.49855683026156716,0.4922254260543944,0.48836164889030265,0.48630027978598384,0.48501506961146834,0.48370736751295434,0.48192696597737344,0.47902929076166983,0.47584946534404265,0.4730697739472714,0.47145235062480334,0.4716285059003525,0.47331460752651106,0.47712491450482286,0.4828640154265336,0.4900497092029354,0.497987770828497,0.5052242280930017,0.5117394987534178,0.5171550694509212,0.5213329110898192,0.5243470357566414,0.5257052044407554,0.526481356279492,0.5271118426790934,0.5279300304723223,0.529096661403972,0.529850830578443,0.5308716926597099,0.5320068382050919,0.5330583799476866,0.5338462870513028,0.5335055825006361,0.5329495772735151,0.532305471048422,0.531696301744913,0.531217227378267,0.530162661851008,0.5294553905202345,0.5290722261516074,0.5288626725121501,0.5285881677052315,0.5272275520530653,0.5254907256013724,0.5233009608003663,0.5206517825874722,0.5176443033135171,0.5137466267352157,0.5102179661414361,0.5075748996949351,0.5062876481204123,0.5067004389218026,0.5082029659336679,0.5116124146660581,0.5167600228586909,0.5232342293924114,0.5304294868880114,0.5369455563155224,0.5429124468171473,0.547886453566706,0.5516291457991754,0.5541585348542201,0.555124136058668,0.5557269607731393,0.5565436466048481,0.5580121546657426,0.5602987082756548,0.562561657626236,0.565077245598787,0.5671381135141638,0.0,0.0,0.0,0.0,0.0,0.0,0.0,0.0,0.0,0.0,0.0,0.0,0.0,0.0,0.0,0.0,0.0,0.0,0.0,0.0,0.0,0.0,0.0,0.0,0.0,0.0,0.0,0.0,0.0,0.0,0.0,0.0,0.0,0.0,0.0,0.0,0.0,0.0,0.0,0.0,0.0,0.0,0.0,0.0,0.0,0.0,0.0,0.0,0.0,0.0,0.0,0.0,0.0,0.0,0.0,0.0,0.0,0.0,0.0,0.0,0.0,0.0,0.0,0.0,0.0,0.0,0.0,0.0,0.0,0.0,0.0,0.0,0.0,0.0,0.0,0.0,0.0,0.0,0.0,0.0,0.0,0.0,0.0,0.0,0.0,0.0,0.0,0.0,0.0,0.0,0.0,0.0,0.0,0.0,0.0,0.0,0.0,0.0,0.0,0.0,0.0,0.0,0.0,0.0,0.0,0.0,0.0,0.0,0.0,0.0,0.0,0.0,0.0,0.0,0.0,0.0,0.0,0.0,0.0,0.0,0.0,0.0,0.0,0.0,0.0,0.0,0.0,0.0,0.0,0.0,0.0,0.0,0.0,0.0,0.0,0.0,0.0,0.0,0.0,0.0,0.0,0.0,0.0,0.0,0.0,0.0,0.0,0.0,0.0,0.0,0.0,0.0,0.0,0.0,0.0,0.0,0.0
0.6061025631697665,0.6200760605606791,0.6269659260888544,0.6287619155072522,0.6274572573260627,0.625197003926481,0.623736188796516,0.6233894348900911,0.6247298532637381,0.6268930209097039,0.628362027979396,0.627396317032353,0.6219760304618576,0.6118019331091892,0.5971652042269223,0.5792461249796776,0.5598108715433736,0.5402601161431135,0.522780945978904,0.5086835275016688,0.49855683026156716,0.4922254260543944,0.48836164889030265,0.48630027978598384,0.48501506961146834,0.48370736751295434,0.48192696597737344,0.47902929076166983,0.47584946534404265,0.4730697739472714,0.47145235062480334,0.4716285059003525,0.47331460752651106,0.47712491450482286,0.4828640154265336,0.4900497092029354,0.497987770828497,0.5052242280930017,0.5117394987534178,0.5171550694509212,0.5213329110898192,0.5243470357566414,0.5257052044407554,0.526481356279492,0.5271118426790934,0.5279300304723223,0.529096661403972,0.529850830578443,0.5308716926597099,0.5320068382050919,0.5330583799476866,0.5338462870513028,0.5335055825006361,0.5329495772735151,0.532305471048422,0.531696301744913,0.531217227378267,0.530162661851008,0.5294553905202345,0.5290722261516074,0.5288626725121501,0.5285881677052315,0.5272275520530653,0.5254907256013724,0.5233009608003663,0.5206517825874722,0.5176443033135171,0.5137466267352157,0.5102179661414361,0.5075748996949351,0.5062876481204123,0.5067004389218026,0.5082029659336679,0.5116124146660581,0.5167600228586909,0.5232342293924114,0.5304294868880114,0.5369455563155224,0.5429124468171473,0.547886453566706,0.5516291457991754,0.5541585348542201,0.555124136058668,0.5557269607731393,0.5565436466048481,0.5580121546657426,0.5602987082756548,0.562561657626236,0.565077245598787,0.5671381135141638,0.5678742852380443,0.5664388816970897,0.5614976692385223,0.5536405088544329,0.5431475438391081,0.5306921875608156,0.5172454289010329,0.5032441841443687,0.4905943663881205,0.4802305866735677,0.47268928116396247,0.468051976104976,0.46532159845307697,0.464640179406126,0.46522917163402944,0.4662678338299067,0.46707902687989244,0.46682955538493665,0.4661414728197556,0.46535264082460853,0.46507172906180844,0.46610607765480894,0.4690766840873445,0.47515584277766604,0.48456069029301296,0.49690499038309754,0.5112087905406953,0.5257918280742234,0.5393515244553441,0.5499968057235749,0.5560364468600935,0.5563115034265819,0.5502156254732906,0.5385655378808576,0.5223312121782332,0.5029086238889272,0.48194228414234885,0.46094693488114885,0.44195160983922993,0.426192847822759,0.4145463523195727,0.40757306485811584,0.4053523717759075,0.40824716668587085,0.4156222511831786,0.42630560976989623,0.43870070098059816,0.4507679552248345,0.4611856139896693,0.4683727493972896,0.47131199475136976,0.4698283371030805,0.46442370351316037,0.0,0.0,0.0,0.0,0.0,0.0,0.0,0.0,0.0,0.0,0.0,0.0,0.0,0.0,0.0,0.0,0.0,0.0,0.0,0.0,0.0,0.0,0.0,0.0,0.0,0.0,0.0,0.0,0.0,0.0,0.0,0.0,0.0,0.0,0.0,0.0,0.0,0.0,0.0,0.0,0.0,0.0,0.0,0.0,0.0,0.0,0.0,0.0,0.0,0.0,0.0,0.0,0.0,0.0,0.0,0.0,0.0,0.0,0.0,0.0,0.0,0.0,0.0,0.0,0.0,0.0,0.0,0.0,0.0,0.0,0.0,0.0,0.0,0.0,0.0,0.0,0.0,0.0,0.0,0.0,0.0,0.0,0.0,0.0,0.0,0.0,0.0,0.0,0.0,0.0,0.0,0.0,0.0,0.0,0.0,0.0,0.0,0.0,0.0,0.0,0.0,0.0,0.0,0.0,0.0,0.0,0.0,0.0,0.0,0.0,0.0,0.0,0.0,0.0,0.0,0.0,0.0,0.0,0.0,0.0,0.0,0.0,0.0,0.0,0.0,0.0,0.0,0.0,0.0,0.0,0.0,0.0,0.0,0.0,0.0,0.0,0.0,0.0,0.0,0.0,0.0,0.0,0.0,0.0,0.0,0.0,0.0,0.0,0.0,0.0,0.0,0.0,0.0,0.0,0.0,0.0,0.0
0.40757306485811584,0.4053523717759075,0.40824716668587085,0.4156222511831786,0.42630560976989623,0.43870070098059816,0.4507679552248345,0.4611856139896693,0.4683727493972896,0.47131199475136976,0.4698283371030805,0.46442370351316037,0.4570890750341506,0.4495501797473962,0.44329677075576296,0.4391458183223254,0.43668028387949887,0.43504892043985494,0.4318404688408837,0.42399317601071757,0.40846329954157035,0.38271233051003173,0.34616215200097405,0.2993674389276809,0.2444986163268961,0.1850972035674001,0.1253685762077377,0.07016407606055074,0.023180294577232346,-0.013217657974711925,-0.0382688924067702,-0.05289717867600703,-0.05884319145724992,-0.05906240445108147,-0.05669158924497316,-0.054392153011599186,-0.05401763917360089,-0.05584408744685487,-0.05970982884802604,-0.06490459158263201,-0.07051541361642816,-0.07589832112221231,-0.08025321946212363,-0.08378555433914323,-0.08709154650903787,-0.09081333309680631,-0.09537901278319265,-0.10033060869297329,-0.10516320005395051,-0.10906635439726445,-0.11111125257718447,-0.11052909534351942,-0.10669612883027461,-0.09991408091145039,-0.09107439926703707,-0.08141259965718724,-0.07245527968381314,-0.06471328856066508,-0.058721149656825115,-0.05452229165704024,-0.051713946737189986,-0.05013102417640999,-0.04832343616455382,-0.04562170193441662,-0.0417053840821921,-0.03667132385024562,-0.031341628825302684,-0.026071647638205433,-0.021950387227226555,-0.02013997781943339,-0.02162870096330124,-0.0271194124923828,-0.03639138324728085,-0.04907019238017475,-0.06431551448778661,-0.0808986572273207,-0.09736072175975567,-0.11223530898443974,-0.12453201340138415,-0.1338011538611369,-0.1401686134913402,-0.14409443028994587,-0.14660678699007348,-0.1486667252934175,-0.15101775550808133,-0.15400707821135193,-0.15740994327853158,-0.1609257985093908,-0.16403039032420402,-0.16634214203330808,-0.16784554293136367,-0.16888740749707082,-0.17047394701667232,-0.17368246279680463,-0.17939192484315078,-0.18785614039792073,-0.19827083363004172,-0.20882276685337164,-0.21648107526483756,-0.21746356244963302,-0.20786673786447782,-0.18442038671415906,-0.14538341395589227,-0.09094432187774885,-0.023624440546030495,0.05179256733090353,0.12867239644786585,0.1995840145398073,0.257300000115536,0.295859407233653,0.31145187252628487,0.30278725622257013,0.27175079076591435,0.22274017034388305,0.16199541092631717,0.09657772333697955,0.03308270687868189,-0.022794911998246844,-0.06731982228085413,-0.0989572803548525,-0.11829642585232576,-0.12779742948838116,-0.13053846145291584,-0.12982643934516264,-0.12842250849502965,-0.12809853575542346,-0.12956245228408622,-0.13242228721016452,-0.135589625945454,-0.13776610655025218,-0.13790064565852114,-0.13545685926154058,-0.13071664058858126,-0.12436313832844913,-0.117340756269096,-0.11054396682461688,-0.10446571487726906,-0.09931500491760112,-0.09462614445911671,-0.08956068772990108,-0.08318728799071264,-0.07468498354567768,-0.06394303697128657,0.0,0.0,0.0,0.0,0.0,0.0,0.0,0.0,0.0,0.0,0.0,0.0,0.0,0.0,0.0,0.0,0.0,0.0,0.0,0.0,0.0,0.0,0.0,0.0,0.0,0.0,0.0,0.0,0.0,0.0,0.0,0.0,0.0,0.0,0.0,0.0,0.0,0.0,0.0,0.0,0.0,0.0,0.0,0.0,0.0,0.0,0.0,0.0,0.0,0.0,0.0,0.0,0.0,0.0,0.0,0.0,0.0,0.0,0.0,0.0,0.0,0.0,0.0,0.0,0.0,0.0,0.0,0.0,0.0,0.0,0.0,0.0,0.0,0.0,0.0,0.0,0.0,0.0,0.0,0.0,0.0,0.0,0.0,0.0,0.0,0.0,0.0,0.0,0.0,0.0,0.0,0.0,0.0,0.0,0.0,0.0,0.0,0.0,0.0,0.0,0.0,0.0,0.0,0.0,0.0,0.0,0.0,0.0,0.0,0.0,0.0,0.0,0.0,0.0,0.0,0.0,0.0,0.0,0.0,0.0,0.0,0.0,0.0,0.0,0.0,0.0,0.0,0.0,0.0,0.0,0.0,0.0,0.0,0.0,0.0,0.0,0.0,0.0,0.0,0.0,0.0,0.0,0.0,0.0,0.0,0.0,0.0,0.0,0.0,0.0,0.0,0.0,0.0,0.0,0.0,0.0,0.0
0.1995840145398073,0.257300000115536,0.295859407233653,0.31145187252628487,0.30278725622257013,0.27175079076591435,0.22274017034388305,0.16199541092631717,0.09657772333697955,0.03308270687868189,-0.022794911998246844,-0.06731982228085413,-0.0989572803548525,-0.11829642585232576,-0.12779742948838116,-0.13053846145291584,-0.12982643934516264,-0.12842250849502965,-0.12809853575542346,-0.12956245228408622,-0.13242228721016452,-0.135589625945454,-0.13776610655025218,-0.13790064565852114,-0.13545685926154058,-0.13071664058858126,-0.12436313832844913,-0.117340756269096,-0.11054396682461688,-0.10446571487726906,-0.09931500491760112,-0.09462614445911671,-0.08956068772990108,-0.08318728799071264,-0.07468498354567768,-0.06394303697128657,-0.051196966097279244,-0.03713687556827262,-0.022714563048615403,-0.008756787641431351,0.0039643357974177024,0.015443805297746818,0.026324740106669506,0.03775816189348184,0.051201188625669296,0.06765058144162041,0.08777954408672668,0.11146265675754151,0.13766523158412816,0.16451461728971092,0.18982771422224612,0.21139900275027979,0.22756254088370778,0.23757230127477447,0.24155310421273776,0.24113257463990181,0.23818077165557533,0.23464042576604924,0.23203690261126328,0.2309949998624953,0.2313735840911198,0.23198240537405268,0.23100926239374897,0.2265015039477521,0.21690535075472156,0.20139433836237647,0.1803019316804566,0.15499353044982075,0.1275746362817384,0.10046588328710036,0.07579107244286261,0.05520065356636151,0.03951342887886019,0.028647768615724663,0.021784622991898508,0.01750557971465611,0.014414127879118823,0.011352936338159448,0.0076201218491299665,0.0030572634544161733,-0.0020651346001316277,-0.007042916419649535,-0.011052899643714253,-0.013407524917464728,-0.013769799056827299,-0.012217488760237545,-0.009140271557826188,-0.005164460362419231,-0.000987213525403337,0.002736671542935816,0.005703925983622469,0.007918430205217738,0.009673813449165661,0.011433097866658058,0.013566737503036058,0.016523576009534816,0.020446601212953424,0.02522164428142037,0.030513278728428343,0.03567766922107416,0.040456294107718976,0.04448528262594966,0.047547728674467035,0.049593459590198626,0.0504649913192651,0.05068861760431003,0.050516153939257735,0.05017359629983755,0.049840028884184547,0.04941573885574515,0.049265669524596906,0.04939057982579854,0.049709265358461555,0.05008659817817046,0.0501763963818545,0.050115429130887436,0.04980647186830906,0.04920639972087587,0.048359050544143,0.04727394290233691,0.04633670583363007,0.04579278040886184,0.04584876492024746,0.04663150291011554,0.04809703066079921,0.05023475613111165,0.052895124646256786,0.05587529741282669,0.058956941620978455,0.0618701683015365,0.06454845877342374,0.0669667345404906,0.06917821348305234,0.07128238033184138,0.07329975691540748,0.07537057470344588,0.07755865542689142,0.07986927322857608,0.08224662639498889,0.08432504645591707,0.08627939990831326,0.08824861701651761,0.09046998517527619,0.0,0.0,0.0,0.0,0.0,0.0,0.0,0.0,0.0,0.0,0.0,0.0,0.0,0.0,0.0,0.0,0.0,0.0,0.0,0.0,0.0,0.0,0.0,0.0,0.0,0.0,0.0,0.0,0.0,0.0,0.0,0.0,0.0,0.0,0.0,0.0,0.0,0.0,0.0,0.0,0.0,0.0,0.0,0.0,0.0,0.0,0.0,0.0,0.0,0.0,0.0,0.0,0.0,0.0,0.0,0.0,0.0,0.0,0.0,0.0,0.0,0.0,0.0,0.0,0.0,0.0,0.0,0.0,0.0,0.0,0.0,0.0,0.0,0.0,0.0,0.0,0.0,0.0,0.0,0.0,0.0,0.0,0.0,0.0,0.0,0.0,0.0,0.0,0.0,0.0,0.0,0.0,0.0,0.0,0.0,0.0,0.0,0.0,0.0,0.0,0.0,0.0,0.0,0.0,0.0,0.0,0.0,0.0,0.0,0.0,0.0,0.0,0.0,0.0,0.0,0.0,0.0,0.0,0.0,0.0,0.0,0.0,0.0,0.0,0.0,0.0,0.0,0.0,0.0,0.0,0.0,0.0,0.0,0.0,0.0,0.0,0.0,0.0,0.0,0.0,0.0,0.0,0.0,0.0,0.0,0.0,0.0,0.0,0.0,0.0,0.0,0.0,0.0,0.0,0.0,0.0,0.0
0.30692641198785586,0.36590902635502504,0.4207016467391959,0.466110329722933,0.4978547318349641,0.5131973693513568,0.5107282315721365,0.4922466405049275,0.46103665317708525,0.42168057165484074,0.3792664798034596,0.33792921470936294,0.3020587179806841,0.27424986230108667,0.2555136347521392,0.2453355902555624,0.24133436451039483,0.24178698851387037,0.24450042857844517,0.24771360340241624,0.2503370695312476,0.2514193610341601,0.25170901351861724,0.2519640340337559,0.2529933710452582,0.25533854880693285,0.2586169930999317,0.2629020770875477,0.2677010325815409,0.2724618826634894,0.2767700464783862,0.28006613245525813,0.2830153188598679,0.28638709521158523,0.2911509927415082,0.29820154414983957,0.30768668754194234,0.32003267817308084,0.3349042732450866,0.3515220172552599,0.36882394552761905,0.38530136409066357,0.4005113532486777,0.41426093754273297,0.42694808738400836,0.4394463469053986,0.45242958678517825,0.46730873819747587,0.4848184330870242,0.5050421531777317,0.527287980087609,0.5496205054594818,0.5709079475142557,0.589557837234475,0.604430257319393,0.6151296132698194,0.6214058726814594,0.6252588630766143,0.6283145828543655,0.6320713490693608,0.6374494725563397,0.6438394653255037,0.6510336895728793,0.6574302821827365,0.6609980683786988,0.65976933184286,0.6517521960692,0.6370944949153642,0.6165780714220401,0.5919500635214981,0.5655434614467468,0.5392047856242359,0.515596480506312,0.4961893086141745,0.4815437743739664,0.47131759105063364,0.46389542195615197,0.4584951072411509,0.4538888850858754,0.44916039186523693,0.4438495441472491,0.43737597143523466,0.43074247233068286,0.4246450311288476,0.4197302098094929,0.41638149724386464,0.41400518090980803,0.41288871666712607,0.4125597633845363,0.41246391208153593,0.41213488568443846,0.4106816665110624,0.4089312938118992,0.40741752290557537,0.4068446175193018,0.4078882741250122,0.41027887595311374,0.41493787678582417,0.4216978210093743,0.43001448941445586,0.43908750089277476,0.44727003940374915,0.4547138314995936,0.4610449703941401,0.46617771396874375,0.4702867276605373,0.47289907068540843,0.47541217265005825,0.4782694145958633,0.4817072848842652,0.4857180005441914,0.4892573946758787,0.4929396894435138,0.49640293896504206,0.4992521108064997,0.5011492734278455,0.5010789328712757,0.5000100081121842,0.49815856523776586,0.49582198818108864,0.4933378344108925,0.4902874191093078,0.4878386046084399,0.4862297445927973,0.48550589786422244,0.48552639539393955,0.4853288950446081,0.4853781040072678,0.4854530963051122,0.48538355980649706,0.4850955284782666,0.48397981707921317,0.482988951602435,0.48251119698128564,0.48295300525374657,0.48466466156259363,0.48723543161544325,0.4914505957551179,0.497249996156994,0.5043271610661311,0.5121567691111422,0.5192566785956435,0.5258481708622745,0.0,0.0,0.0,0.0,0.0,0.0,0.0,0.0,0.0,0.0,0.0,0.0,0.0,0.0,0.0,0.0,0.0,0.0,0.0,0.0,0.0,0.0,0.0,0.0,0.0,0.0,0.0,0.0,0.0,0.0,0.0,0.0,0.0,0.0,0.0,0.0,0.0,0.0,0.0,0.0,0.0,0.0,0.0,0.0,0.0,0.0,0.0,0.0,0.0,0.0,0.0,0.0,0.0,0.0,0.0,0.0,0.0,0.0,0.0,0.0,0.0,0.0,0.0,0.0,0.0,0.0,0.0,0.0,0.0,0.0,0.0,0.0,0.0,0.0,0.0,0.0,0.0,0.0,0.0,0.0,0.0,0.0,0.0,0.0,0.0,0.0,0.0,0.0,0.0,0.0,0.0,0.0,0.0,0.0,0.0,0.0,0.0,0.0,0.0,0.0,0.0,0.0,0.0,0.0,0.0,0.0,0.0,0.0,0.0,0.0,0.0,0.0,0.0,0.0,0.0,0.0,0.0,0.0,0.0,0.0,0.0,0.0,0.0,0.0,0.0,0.0,0.0,0.0,0.0,0.0,0.0,0.0,0.0,0.0,0.0,0.0,0.0,0.0,0.0,0.0,0.0,0.0,0.0,0.0,0.0,0.0,0.0,0.0,0.0,0.0,0.0,0.0,0.0,0.0,0.0,0.0,0.0
0.7247574200497664,0.7815361319277602,0.8277478025818195,0.8582406685308581,0.8695626002435258,0.8595725472406139,0.830563940783496,0.7861977079086798,0.7317527202264781,0.6732624586066399,0.6156590414921351,0.5648092607406502,0.5240941325134167,0.4949576681816809,0.47696231696975405,0.46727605632361807,0.4641031944941514,0.46458803352782235,0.46623947104179303,0.46732622439705135,0.4662673165136688,0.46399213618301605,0.4612222173230653,0.45886797160785575,0.4576901318243487,0.45743205735357156,0.45879417000248646,0.4613682765168468,0.4644978472013891,0.4675273351582566,0.46944721136560297,0.47093095654524303,0.47234569625367284,0.47427988138961674,0.47736453849216465,0.48154071259637377,0.48763703657802693,0.49543135813274297,0.5043039228581943,0.5134267658133943,0.5215283898751474,0.5288225109283773,0.5354149076051866,0.5419435904617719,0.549488993134624,0.5588505711217061,0.5717643909577437,0.5888193988817966,0.6097411759545196,0.6333226217885424,0.6570142218566178,0.6792455203319775,0.6977031018934321,0.7106080980463861,0.7171562504424609,0.7170436786089274,0.7126799654649338,0.7060601569858004,0.6991715113085428,0.693495964070796,0.6890674403733988,0.6862273575923418,0.6835146203807605,0.6787927299629929,0.669835677699131,0.6544820813254847,0.6326205727544049,0.6047153753547881,0.5722971893118651,0.5376610269527998,0.5029679432339342,0.4711806161754358,0.4440035052692866,0.42217858198714686,0.4054863762064688,0.39254090793011415,0.3825037455812928,0.3738948269140759,0.3654550321474565,0.3563986139891725,0.34611742841690946,0.3354719995581931,0.32506032652049005,0.3155142029533115,0.3073108517718761,0.3002642650723881,0.2948073588903022,0.2905121922386805,0.286760292067906,0.2829529500592122,0.27830680637521515,0.27331415755607014,0.26814216283119396,0.2631109303589148,0.2585950483465483,0.25450962423829604,0.2516018204315188,0.24973759136595755,0.24853094485057106,0.24749353731792478,0.24576796630954206,0.24379599879531147,0.24150421393627058,0.23896681769566633,0.23639202628930134,0.2335874520374531,0.23155697408870943,0.2303444004482256,0.22976014989679738,0.22947711407119634,0.22866032074480155,0.2277806018320195,0.22659067085672113,0.22488709395650855,0.22256220185309133,0.21912220530639356,0.21542571066624425,0.2115768593646091,0.2076327824173947,0.20364300630437573,0.19929025656946783,0.19525054867754327,0.1915403194496655,0.18807751572686304,0.18472381075566013,0.1810608290214371,0.17740115409736995,0.17363415234232438,0.16967953789108295,0.16553604638106173,0.16108274777981402,0.1568445859604373,0.1529523589186079,0.14946020419879352,0.1463482820064633,0.14337859609376516,0.14072453586426267,0.13820596757497894,0.1356356678762114,0.13289381246432952,0.1298303713897612,0.12682270686787772,0.12401087339932611,0.0,0.0,0.0,0.0,0.0,0.0,0.0,0.0,0.0,0.0,0.0,0.0,0.0,0.0,0.0,0.0,0.0,0.0,0.0,0.0,0.0,0.0,0.0,0.0,0.0,0.0,0.0,0.0,0.0,0.0,0.0,0.0,0.0,0.0,0.0,0.0,0.0,0.0,0.0,0.0,0.0,0.0,0.0,0.0,0.0,0.0,0.0,0.0,0.0,0.0,0.0,0.0,0.0,0.0,0.0,0.0,0.0,0.0,0.0,0.0,0.0,0.0,0.0,0.0,0.0,0.0,0.0,0.0,0.0,0.0,0.0,0.0,0.0,0.0,0.0,0.0,0.0,0.0,0.0,0.0,0.0,0.0,0.0,0.0,0.0,0.0,0.0,0.0,0.0,0.0,0.0,0.0,0.0,0.0,0.0,0.0,0.0,0.0,0.0,0.0,0.0,0.0,0.0,0.0,0.0,0.0,0.0,0.0,0.0,0.0,0.0,0.0,0.0,0.0,0.0,0.0,0.0,0.0,0.0,0.0,0.0,0.0,0.0,0.0,0.0,0.0,0.0,0.0,0.0,0.0,0.0,0.0,0.0,0.0,0.0,0.0,0.0,0.0,0.0,0.0,0.0,0.0,0.0,0.0,0.0,0.0,0.0,0.0,0.0,0.0,0.0,0.0,0.0,0.0,0.0,0.0,0.0
0.3738948269140759,0.3654550321474565,0.3563986139891725,0.34611742841690946,0.3354719995581931,0.32506032652049005,0.3155142029533115,0.3073108517718761,0.3002642650723881,0.2948073588903022,0.2905121922386805,0.286760292067906,0.2829529500592122,0.27830680637521515,0.27331415755607014,0.26814216283119396,0.2631109303589148,0.2585950483465483,0.25450962423829604,0.2516018204315188,0.24973759136595755,0.24853094485057106,0.24749353731792478,0.24576796630954206,0.24379599879531147,0.24150421393627058,0.23896681769566633,0.23639202628930134,0.2335874520374531,0.23155697408870943,0.2303444004482256,0.22976014989679738,0.22947711407119634,0.22866032074480155,0.2277806018320195,0.22659067085672113,0.22488709395650855,0.22256220185309133,0.21912220530639356,0.21542571066624425,0.2115768593646091,0.2076327824173947,0.20364300630437573,0.19929025656946783,0.19525054867754327,0.1915403194496655,0.18807751572686304,0.18472381075566013,0.1810608290214371,0.17740115409736995,0.17363415234232438,0.16967953789108295,0.16553604638106173,0.16108274777981402,0.1568445859604373,0.1529523589186079,0.14946020419879352,0.1463482820064633,0.14337859609376516,0.14072453586426267,0.13820596757497894,0.1356356678762114,0.13289381246432952,0.1298303713897612,0.12682270686787772,0.12401087339932611,0.12152146948053959,0.11943934292219571,0.11765040358720635,0.1163257347912677,0.11526755664666202,0.11420803918414116,0.11291101713052625,0.11098639669848558,0.1089233416894049,0.10710144679716174,0.10605821213779477,0.10638269133885678,0.10812850666875884,0.11209787430348164,0.1183900959593742,0.1267302738429489,0.13645505676916073,0.14620527886643558,0.1551929002839005,0.16223190153238362,0.1662633587980674,0.1665274221994647,0.16242703246645243,0.15447902513833317,0.14338045472484995,0.1302006267355466,0.11621096983836894,0.10247891496657315,0.09027045296691852,0.0801615960103606,0.0721888334998985,0.06589451747727319,0.060382559923202836,0.05493142881109112,0.048760490341501456,0.041436260908080454,0.03301646284876959,0.023939047857669427,0.015282279007600931,0.008015008336064743,0.0028761301961857345,0.00013840822026601788,-0.0006341554128719825,-0.00010421336743452336,0.0005665609604456554,0.0002357464393549084,-0.0018105011427369158,-0.005654170862487708,-0.010053659322117468,-0.013003164755188899,-0.011845516847938494,-0.003759410505739848,0.013461806695568325,0.041372915285539415,0.0798614503344115,0.12711510473685145,0.17973444809234457,0.23291422613298196,0.2818970038101206,0.3220473907740982,0.3498038976180595,0.36322830669042894,0.36193902481437507,0.34802514776887616,0.3247670166377647,0.2962235297404604,0.2664555043306031,0.23843879942009097,0.2146591147339559,0.1958681322308801,0.18143490350078903,0.1696827019707773,0.1580211614747514,0.14480138157433348,0.12871773790728655,0.109467050799084,0.0878091112911079,0.0,0.0,0.0,0.0,0.0,0.0,0.0,0.0,0.0,0.0,0.0,0.0,0.0,0.0,0.0,0.0,0.0,0.0,0.0,0.0,0.0,0.0,0.0,0.0,0.0,0.0,0.0,0.0,0.0,0.0,0.0,0.0,0.0,0.0,0.0,0.0,0.0,0.0,0.0,0.0,0.0,0.0,0.0,0.0,0.0,0.0,0.0,0.0,0.0,0.0,0.0,0.0,0.0,0.0,0.0,0.0,0.0,0.0,0.0,0.0,0.0,0.0,0.0,0.0,0.0,0.0,0.0,0.0,0.0,0.0,0.0,0.0,0.0,0.0,0.0,0.0,0.0,0.0,0.0,0.0,0.0,0.0,0.0,0.0,0.0,0.0,0.0,0.0,0.0,0.0,0.0,0.0,0.0,0.0,0.0,0.0,0.0,0.0,0.0,0.0,0.0,0.0,0.0,0.0,0.0,0.0,0.0,0.0,0.0,0.0,0.0,0.0,0.0,0.0,0.0,0.0,0.0,0.0,0.0,0.0,0.0,0.0,0.0,0.0,0.0,0.0,0.0,0.0,0.0,0.0,0.0,0.0,0.0,0.0,0.0,0.0,0.0,0.0,0.0,0.0,0.0,0.0,0.0,0.0,0.0,0.0,0.0,0.0,0.0,0.0,0.0,0.0,0.0,0.0,0.0,0.0,0.0
0.3220473907740982,0.3498038976180595,0.36322830669042894,0.36193902481437507,0.34802514776887616,0.3247670166377647,0.2962235297404604,0.2664555043306031,0.23843879942009097,0.2146591147339559,0.1958681322308801,0.18143490350078903,0.1696827019707773,0.1580211614747514,0.14480138157433348,0.12871773790728655,0.109467050799084,0.0878091112911079,0.06506193883459727,0.04363018717107585,0.025667152477919446,0.012831396161160302,0.005935520611438498,0.0046095201833363415,0.008017079839927926,0.01460833227568138,0.022664639207873555,0.030683753244514205,0.03753428749843772,0.0429868661002306,0.04731980996560937,0.05120787675659305,0.055431985877589914,0.06053061730787956,0.06679597655667008,0.07407200446927399,0.08187675761216426,0.08960022244443827,0.09668977925555762,0.10306405300967418,0.10909659789670977,0.11562466136059506,0.12376845901128662,0.13457606118442092,0.14888419765418032,0.1669059142800563,0.1881144207743885,0.21127009107832828,0.23446116576412684,0.2560550836222331,0.2744668679868193,0.28874073647964027,0.29877172314537,0.3050230948721338,0.3092980901166285,0.3131870973740743,0.31801439689570066,0.32446452408848525,0.33212334882139893,0.34029061942400934,0.3472842211010001,0.3511500941855141,0.3501573250316005,0.34305099142669404,0.32997131536898955,0.31182464336691174,0.2903042048344517,0.26751404170876725,0.24535521764685433,0.2255814132180004,0.2090408544052343,0.1957223101431949,0.184870758385934,0.1751590011689239,0.1653866786604922,0.15457767678246806,0.14229092213867098,0.128704809063206,0.11441875899572608,0.10061395650848368,0.08846208852056898,0.07892658865896347,0.072538859740478,0.06916020828248204,0.0684141432340864,0.06946428101621804,0.0713399045041816,0.07316756160602098,0.07421455192431266,0.0744565501822541,0.07411740791921632,0.07369726823753188,0.07379626347156397,0.07476268256588434,0.07706780284243984,0.08069404575738329,0.08532108840912067,0.09042423350329054,0.09521069499418071,0.09946295736378517,0.10287895048788695,0.1053706573017815,0.10705220353501713,0.10792059330055141,0.10863338135809432,0.10942731345127422,0.11040630024706354,0.11155281451190503,0.11250052801455311,0.11352153213412723,0.11450549540386691,0.11536151220392062,0.11605342548879297,0.11632022496583347,0.11665377369588903,0.11712390883767496,0.11774649719365894,0.11849155146753204,0.11904830543522267,0.1196767407107962,0.12028118893086107,0.12073829649071126,0.12092967744627113,0.12056454135296475,0.11988536178798702,0.11894551554391077,0.11783511005440134,0.11666653369082526,0.11534785881143522,0.1142085439744831,0.11333577233754734,0.11275062779912885,0.11240338993537939,0.11198567963835887,0.11157537621587799,0.11111656654585673,0.11059256767887297,0.1100236737774585,0.1092403990512154,0.1085170626394213,0.10796652100953763,0.10766981713973345,0.10764395761953761,0.0,0.0,0.0,0.0,0.0,0.0,0.0,0.0,0.0,0.0,0.0,0.0,0.0,0.0,0.0,0.0,0.0,0.0,0.0,0.0,0.0,0.0,0.0,0.0,0.0,0.0,0.0,0.0,0.0,0.0,0.0,0.0,0.0,0.0,0.0,0.0,0.0,0.0,0.0,0.0,0.0,0.0,0.0,0.0,0.0,0.0,0.0,0.0,0.0,0.0,0.0,0.0,0.0,0.0,0.0,0.0,0.0,0.0,0.0,0.0,0.0,0.0,0.0,0.0,0.0,0.0,0.0,0.0,0.0,0.0,0.0,0.0,0.0,0.0,0.0,0.0,0.0,0.0,0.0,0.0,0.0,0.0,0.0,0.0,0.0,0.0,0.0,0.0,0.0,0.0,0.0,0.0,0.0,0.0,0.0,0.0,0.0,0.0,0.0,0.0,0.0,0.0,0.0,0.0,0.0,0.0,0.0,0.0,0.0,0.0,0.0,0.0,0.0,0.0,0.0,0.0,0.0,0.0,0.0,0.0,0.0,0.0,0.0,0.0,0.0,0.0,0.0,0.0,0.0,0.0,0.0,0.0,0.0,0.0,0.0,0.0,0.0,0.0,0.0,0.0,0.0,0.0,0.0,0.0,0.0,0.0,0.0,0.0,0.0,0.0,0.0,0.0,0.0,0.0,0.0,0.0,0.0
0.44676900459276997,0.5034116061063011,0.5561280790713888,0.600433508727409,0.6327016179101871,0.6506317950987598,0.6525276771106822,0.6403314379194738,0.6169450577295023,0.5864006623922665,0.5531682790052355,0.5204391273336402,0.4925200622265132,0.47190988760898944,0.459732166790348,0.4557047629117112,0.45735619869896066,0.46346565911913573,0.47203298966007823,0.4813678704605975,0.4903197144741091,0.4974353703690684,0.5036247846829898,0.509664733563375,0.5165074506628294,0.5249346660365071,0.5344844502578913,0.5458086355632016,0.5586430878620736,0.5724703425690739,0.5866479948658623,0.599743223004001,0.6121402159652115,0.624026419117937,0.635895612501683,0.6483613236952175,0.6611168095849962,0.6752143504128988,0.6908322603673543,0.7077782641413475,0.7254979099436671,0.7423755480902912,0.7584757778327382,0.7736179829470704,0.7880961627071849,0.8026344961921167,0.8173587125445502,0.8340630355247245,0.8536447041055392,0.8763723670556756,0.9016425063867765,0.927027496575015,0.9514405564590585,0.9728500456913931,0.9895672594429026,1.0006505165814363,1.0050960216806841,1.0050919309990964,1.0024981448557353,0.9993331217703986,0.9972178510119291,0.9963377132161475,0.9971286988665196,0.9982898481799501,0.9978528638861036,0.9937851854424216,0.9844719682353924,0.9696866830382852,0.9498256406421133,0.9261761819734264,0.900643735561005,0.8752664233045414,0.8523077832638248,0.8330558809118478,0.8181119605786449,0.8075022856795883,0.8007908309307377,0.797675448738796,0.7971959131112983,0.7982344235275605,0.7996733578314532,0.8004669767062768,0.8003079849079399,0.7987398708164112,0.7957435497514993,0.7918444299833183,0.7879396896573571,0.7856249070855822,0.7856495263339026,0.7880910879379672,0.7922631421609413,0.7965873393610575,0.8000340271246716,0.8010016629585105,0.7985108747616457,0.7926818543385643,0.7844602143810532,0.7769196307703604,0.7725107794870135,0.7729881348590293,0.7786560667585649,0.7874454313367476,0.7963978981992001,0.7998737460920519,0.7913225308224704,0.7646302791785657,0.7151013733403473,0.6421417560984952,0.5475137797187937,0.43620075243530265,0.31582759842841734,0.195104964019896,0.08400001009923488,-0.010137825254051245,-0.08283241338155149,-0.13297508232173097,-0.16310243180280046,-0.17691812863730588,-0.18051972426485424,-0.1801024013292217,-0.18062944399813322,-0.1853679788759761,-0.19406463571534116,-0.20554536716495866,-0.217684402608289,-0.2282838056745355,-0.23622308627315797,-0.24044346818241363,-0.24194576639415183,-0.24256688023671225,-0.24416465373247861,-0.24822680135944836,-0.25375997241214915,-0.2592685913022644,-0.2623032629091195,-0.26004550179042174,-0.2505110530570675,-0.23155081218875398,-0.20344705478132893,-0.1681651279314144,-0.1289529505569759,-0.09023755635247321,-0.055001006528144686,0.0,0.0,0.0,0.0,0.0,0.0,0.0,0.0,0.0,0.0,0.0,0.0,0.0,0.0,0.0,0.0,0.0,0.0,0.0,0.0,0.0,0.0,0.0,0.0,0.0,0.0,0.0,0.0,0.0,0.0,0.0,0.0,0.0,0.0,0.0,0.0,0.0,0.0,0.0,0.0,0.0,0.0,0.0,0.0,0.0,0.0,0.0,0.0,0.0,0.0,0.0,0.0,0.0,0.0,0.0,0.0,0.0,0.0,0.0,0.0,0.0,0.0,0.0,0.0,0.0,0.0,0.0,0.0,0.0,0.0,0.0,0.0,0.0,0.0,0.0,0.0,0.0,0.0,0.0,0.0,0.0,0.0,0.0,0.0,0.0,0.0,0.0,0.0,0.0,0.0,0.0,0.0,0.0,0.0,0.0,0.0,0.0,0.0,0.0,0.0,0.0,0.0,0.0,0.0,0.0,0.0,0.0,0.0,0.0,0.0,0.0,0.0,0.0,0.0,0.0,0.0,0.0,0.0,0.0,0.0,0.0,0.0,0.0,0.0,0.0,0.0,0.0,0.0,0.0,0.0,0.0,0.0,0.0,0.0,0.0,0.0,0.0,0.0,0.0,0.0,0.0,0.0,0.0,0.0,0.0,0.0,0.0,0.0,0.0,0.0,0.0,0.0,0.0,0.0,0.0,0.0,0.0
0.195104964019896,0.08400001009923488,-0.010137825254051245,-0.08283241338155149,-0.13297508232173097,-0.16310243180280046,-0.17691812863730588,-0.18051972426485424,-0.1801024013292217,-0.18062944399813322,-0.1853679788759761,-0.19406463571534116,-0.20554536716495866,-0.217684402608289,-0.2282838056745355,-0.23622308627315797,-0.24044346818241363,-0.24194576639415183,-0.24256688023671225,-0.24416465373247861,-0.24822680135944836,-0.25375997241214915,-0.2592685913022644,-0.2623032629091195,-0.26004550179042174,-0.2505110530570675,-0.23155081218875398,-0.20344705478132893,-0.1681651279314144,-0.1289529505569759,-0.09023755635247321,-0.055001006528144686,-0.026517104918952452,-0.007100825908657613,0.002139600676469977,0.0007028863154075719,-0.009312252051225834,-0.025991676003099963,-0.04702114390021381,-0.06991146313308087,-0.09279272272968868,-0.11263744381810918,-0.12786655954313766,-0.1376613816172536,-0.14196252694263173,-0.1418935545423098,-0.13771968152437628,-0.13086150078520153,-0.12280373384823885,-0.11477756345496722,-0.10778779860839248,-0.10175186341785145,-0.09656695555812307,-0.09194791915255483,-0.08759259996730268,-0.08324870536324962,-0.0789974143231315,-0.07490967489708664,-0.07109439865635982,-0.067612851570611,-0.0642499931753297,-0.06099932605017475,-0.05747420143747785,-0.05317989649767948,-0.04763310317391933,-0.04024771497603264,-0.03126484122936517,-0.020925971542689513,-0.009730461362514462,0.0016691782512958636,0.012895109852012306,0.023203626785385244,0.03257813332609537,0.041516320735695715,0.050971459676511066,0.06240858113936798,0.07661843951669958,0.09431210101653799,0.11549860426912174,0.13930881997134825,0.16420718228346345,0.18769557227253658,0.20732923553711557,0.22105237179205228,0.22764618026618544,0.22708052882017063,0.22026587044362875,0.20899333513574161,0.19545198288057483,0.18172495874087657,0.1694409688745752,0.15918815997737862,0.15078820500009318,0.14338681982815238,0.13580373721556774,0.127041595873548,0.11625724516253982,0.10338291923863592,0.08895426628457484,0.07390027880454873,0.05930275892553741,0.04579847417292091,0.03367546474787184,0.02266204609087005,0.011996820393529742,0.0006958809211516744,-0.012317251435922274,-0.027668859805123177,-0.04539520841819441,-0.06486992268759459,-0.08487350148972769,-0.10392995383900552,-0.12048412422212496,-0.1333006081811376,-0.1417366657687189,-0.14587153473078437,-0.14647797073277286,-0.14474632066845322,-0.1420097518605822,-0.13942643645251823,-0.1377599729582058,-0.13717020201396618,-0.13732302544690608,-0.1375517938860872,-0.13711620713631756,-0.13551752432165676,-0.13247127492968466,-0.1281605619625319,-0.12308090485666005,-0.11785557814911536,-0.11313752263654284,-0.10903641695387245,-0.10549953415857702,-0.10218780336386675,-0.09859494916191316,-0.09438816665605984,-0.0889701713189378,-0.08229218837163112,-0.07461872975835598,-0.06643782368916233,-0.05849316859185458,-0.05105882961577767,-0.04447817273487265,0.0,0.0,0.0,0.0,0.0,0.0,0.0,0.0,0.0,0.0,0.0,0.0,0.0,0.0,0.0,0.0,0.0,0.0,0.0,0.0,0.0,0.0,0.0,0.0,0.0,0.0,0.0,0.0,0.0,0.0,0.0,0.0,0.0,0.0,0.0,0.0,0.0,0.0,0.0,0.0,0.0,0.0,0.0,0.0,0.0,0.0,0.0,0.0,0.0,0.0,0.0,0.0,0.0,0.0,0.0,0.0,0.0,0.0,0.0,0.0,0.0,0.0,0.0,0.0,0.0,0.0,0.0,0.0,0.0,0.0,0.0,0.0,0.0,0.0,0.0,0.0,0.0,0.0,0.0,0.0,0.0,0.0,0.0,0.0,0.0,0.0,0.0,0.0,0.0,0.0,0.0,0.0,0.0,0.0,0.0,0.0,0.0,0.0,0.0,0.0,0.0,0.0,0.0,0.0,0.0,0.0,0.0,0.0,0.0,0.0,0.0,0.0,0.0,0.0,0.0,0.0,0.0,0.0,0.0,0.0,0.0,0.0,0.0,0.0,0.0,0.0,0.0,0.0,0.0,0.0,0.0,0.0,0.0,0.0,0.0,0.0,0.0,0.0,0.0,0.0,0.0,0.0,0.0,0.0,0.0,0.0,0.0,0.0,0.0,0.0,0.0,0.0,0.0,0.0,0.0,0.0,0.0
0.3019867218734337,0.36581374867959987,0.4182441023492343,0.45424755900976865,0.47067312163293296,0.4660598895405563,0.4425805338381926,0.4041775822767395,0.3562918921043661,0.3049296641033171,0.2550565326563292,0.21165439077303266,0.1775781661057244,0.1537348300588462,0.13918620657370134,0.13095529823486696,0.12662260438360556,0.12346694284526848,0.1195055206810431,0.11383164083780581,0.10610450444938022,0.09795291616141583,0.09119230258689766,0.08761808951117185,0.08847707510191026,0.0936663078316974,0.10302837003626827,0.11546185410225988,0.12952320321319738,0.14379237103612508,0.15676690112413671,0.16831333381248617,0.17870843787980917,0.18868739539787094,0.1991076669703399,0.2102126020896995,0.2225364595810251,0.23595531824096477,0.24997137601689604,0.26390679518473353,0.2767703619810283,0.2887549675545644,0.3004967231184015,0.31326618821784685,0.3287059233991272,0.3479810346136504,0.37259932066679213,0.40303669173342055,0.43869297012968783,0.47781882914663537,0.5171310179299629,0.5541041491395379,0.5859182991453409,0.6105029195643342,0.6269317348941436,0.6348148892221157,0.6365286816820042,0.634462516270523,0.6311445583129962,0.6286361762141169,0.627365398958418,0.6280734526712318,0.6298982820870312,0.6312629491707193,0.6303406175340902,0.6249179068311502,0.6147648707759562,0.6002091825876172,0.5824956547446846,0.5634405333051048,0.5443001452299611,0.5272776210825771,0.5135412354569903,0.5034519925723513,0.49654044907611933,0.4910190991565043,0.4861096452041719,0.4807948918386688,0.47450519866982344,0.4672105112764469,0.45864296283023914,0.4503073855568761,0.44341302406753036,0.43904869918069417,0.43788057347677445,0.4391917299805232,0.4432271771825951,0.4493029820016594,0.4565451719419824,0.46407400077648275,0.47033136419656657,0.4757591258149868,0.4805646304593033,0.4852253299854294,0.490267428076191,0.49514856018294523,0.5008880584598492,0.5075446264968622,0.5149372123778997,0.5227077342835509,0.5293978732952768,0.5357947134926044,0.5420165149808915,0.5483539780344742,0.5551480404909108,0.5614792080029674,0.5687321784162807,0.5770366281285566,0.5862862449331518,0.5961580150794256,0.6058349170580485,0.6153304603430786,0.6239947409423732,0.6313180472662336,0.6371679896679405,0.6415821883693223,0.6459370034262603,0.6510505730700556,0.6574487839893436,0.6651182639090747,0.6731319399512675,0.6809251920443754,0.6872473112810542,0.6912633012803355,0.6930685381502089,0.6936005636032041,0.6952999007285607,0.700080981444878,0.708929231880249,0.7212833287184827,0.7347218367052709,0.7465054515991759,0.7535530444787093,0.754258213424395,0.7494981192867565,0.7425064433868852,0.7387242631383455,0.7427908168601258,0.7569067625457895,0.7794632360444527,0.8047787423729617,0.8255946038873279,0.8346971936156536,0.0,0.0,0.0,0.0,0.0,0.0,0.0,0.0,0.0,0.0,0.0,0.0,0.0,0.0,0.0,0.0,0.0,0.0,0.0,0.0,0.0,0.0,0.0,0.0,0.0,0.0,0.0,0.0,0.0,0.0,0.0,0.0,0.0,0.0,0.0,0.0,0.0,0.0,0.0,0.0,0.0,0.0,0.0,0.0,0.0,0.0,0.0,0.0,0.0,0.0,0.0,0.0,0.0,0.0,0.0,0.0,0.0,0.0,0.0,0.0,0.0,0.0,0.0,0.0,0.0,0.0,0.0,0.0,0.0,0.0,0.0,0.0,0.0,0.0,0.0,0.0,0.0,0.0,0.0,0.0,0.0,0.0,0.0,0.0,0.0,0.0,0.0,0.0,0.0,0.0,0.0,0.0,0.0,0.0,0.0,0.0,0.0,0.0,0.0,0.0,0.0,0.0,0.0,0.0,0.0,0.0,0.0,0.0,0.0,0.0,0.0,0.0,0.0,0.0,0.0,0.0,0.0,0.0,0.0,0.0,0.0,0.0,0.0,0.0,0.0,0.0,0.0,0.0,0.0,0.0,0.0,0.0,0.0,0.0,0.0,0.0,0.0,0.0,0.0,0.0,0.0,0.0,0.0,0.0,0.0,0.0,0.0,0.0,0.0,0.0,0.0,0.0,0.0,0.0,0.0,0.0,0.0
0.634462516270523,0.6311445583129962,0.6286361762141169,0.627365398958418,0.6280734526712318,0.6298982820870312,0.6312629491707193,0.6303406175340902,0.6249179068311502,0.6147648707759562,0.6002091825876172,0.5824956547446846,0.5634405333051048,0.5443001452299611,0.5272776210825771,0.5135412354569903,0.5034519925723513,0.49654044907611933,0.4910190991565043,0.4861096452041719,0.4807948918386688,0.47450519866982344,0.4672105112764469,0.45864296283023914,0.4503073855568761,0.44341302406753036,0.43904869918069417,0.43788057347677445,0.4391917299805232,0.4432271771825951,0.4493029820016594,0.4565451719419824,0.46407400077648275,0.47033136419656657,0.4757591258149868,0.4805646304593033,0.4852253299854294,0.490267428076191,0.49514856018294523,0.5008880584598492,0.5075446264968622,0.5149372123778997,0.5227077342835509,0.5293978732952768,0.5357947134926044,0.5420165149808915,0.5483539780344742,0.5551480404909108,0.5614792080029674,0.5687321784162807,0.5770366281285566,0.5862862449331518,0.5961580150794256,0.6058349170580485,0.6153304603430786,0.6239947409423732,0.6313180472662336,0.6371679896679405,0.6415821883693223,0.6459370034262603,0.6510505730700556,0.6574487839893436,0.6651182639090747,0.6731319399512675,0.6809251920443754,0.6872473112810542,0.6912633012803355,0.6930685381502089,0.6936005636032041,0.6952999007285607,0.700080981444878,0.708929231880249,0.7212833287184827,0.7347218367052709,0.7465054515991759,0.7535530444787093,0.754258213424395,0.7494981192867565,0.7425064433868852,0.7387242631383455,0.7427908168601258,0.7569067625457895,0.7794632360444527,0.8047787423729617,0.8255946038873279,0.8346971936156536,0.8285200237254862,0.8094283528021489,0.7857573923110786,0.7706121656479641,0.7763936449042308,0.8103063406341354,0.8703699368844147,0.9436697538846622,1.0092940010753255,1.042070055068749,1.0200464426314775,0.9313115209666806,0.7781334425287162,0.5785544919486776,0.3611906006864616,0.15877383006084936,0.0,0.0,0.0,0.0,0.0,0.0,0.0,0.0,0.0,0.0,0.0,0.0,0.0,0.0,0.0,0.0,0.0,0.0,0.0,0.0,0.0,0.0,0.0,0.0,0.0,0.0,0.0,0.0,0.0,0.0,0.0,0.0,0.0,0.0,0.0,0.0,0.0,0.0,0.0,0.0,0.0,0.0,0.0,0.0,0.0,0.0,0.0,0.0,0.0,0.0,0.0,0.0,0.0,0.0,0.0,0.0,0.0,0.0,0.0,0.0,0.0,0.0,0.0,0.0,0.0,0.0,0.0,0.0,0.0,0.0,0.0,0.0,0.0,0.0,0.0,0.0,0.0,0.0,0.0,0.0,0.0,0.0,0.0,0.0,0.0,0.0,0.0,0.0,0.0,0.0,0.0,0.0,0.0,0.0,0.0,0.0,0.0,0.0,0.0,0.0,0.0,0.0,0.0,0.0,0.0,0.0,0.0,0.0,0.0,0.0,0.0,0.0,0.0,0.0,0.0,0.0,0.0,0.0,0.0,0.0,0.0,0.0,0.0,0.0,0.0,0.0,0.0,0.0,0.0,0.0,0.0,0.0,0.0,0.0,0.0,0.0,0.0,0.0,0.0,0.0,0.0,0.0,0.0,0.0,0.0,0.0,0.0,0.0,0.0,0.0,0.0,0.0,0.0,0.0,0.0,0.0,0.0,0.0,0.0,0.0,0.0,0.0,0.0,0.0,0.0,0.0,0.0,0.0,0.0,0.0,0.0,0.0,0.0,0.0,0.0,0.0,0.0,0.0,0.0,0.0,0.0,0.0,0.0,0.0,0.0,0.0,0.0,0.0,0.0,0.0,0.0,0.0,0.0,0.0,0.0,0.0,0.0,0.0
0.332759077272938,0.346372130013596,0.36133625591562196,0.3767071402424889,0.39177094842892274,0.40548624423149227,0.41687069967356116,0.4252042337855862,0.42970107993515344,0.4309378492188213,0.42983263793606835,0.42761725951943214,0.4254878387877211,0.42377446323526474,0.4231760580745372,0.42367004849587225,0.4247937437478947,0.42577144378985615,0.4251939372104948,0.42277688774841143,0.41843248503574837,0.41255745764361784,0.4059012181648771,0.3988091474137131,0.39258832689835693,0.38810168082535335,0.385886407832262,0.3860309925398981,0.38760318399625265,0.39041347776758384,0.3938806804033125,0.397506479903503,0.4009539179701627,0.403467562156616,0.4056988612705386,0.40813826611948956,0.41136940772561537,0.4158768434004274,0.4212217493407659,0.4279691417749964,0.4359797478308377,0.444910088766963,0.45427155915026357,0.46281936904998366,0.4708339930637136,0.47830382723735076,0.4854565987965362,0.4926662749000998,0.4995675687250262,0.5072449997460321,0.5160161273353369,0.5259361113365526,0.536742217136396,0.5470767867730962,0.5570881565473463,0.5662683047703142,0.5742399686157509,0.5808181593726923,0.585170803302579,0.5884549885166716,0.5912240410473253,0.5940282592316115,0.5972599404237011,0.6001574099046593,0.6035191918124349,0.6071556680264131,0.610703044828979,0.6137017214747099,0.0,0.0,0.0,0.0,0.0,0.0,0.0,0.0,0.0,0.0,0.0,0.0,0.0,0.0,0.0,0.0,0.0,0.0,0.0,0.0,0.0,0.0,0.0,0.0,0.0,0.0,0.0,0.0,0.0,0.0,0.0,0.0,0.0,0.0,0.0,0.0,0.0,0.0,0.0,0.0,0.0,0.0,0.0,0.0,0.0,0.0,0.0,0.0,0.0,0.0,0.0,0.0,0.0,0.0,0.0,0.0,0.0,0.0,0.0,0.0,0.0,0.0,0.0,0.0,0.0,0.0,0.0,0.0,0.0,0.0,0.0,0.0,0.0,0.0,0.0,0.0,0.0,0.0,0.0,0.0,0.0,0.0,0.0,0.0,0.0,0.0,0.0,0.0,0.0,0.0,0.0,0.0,0.0,0.0,0.0,0.0,0.0,0.0,0.0,0.0,0.0,0.0,0.0,0.0,0.0,0.0,0.0,0.0,0.0,0.0,0.0,0.0,0.0,0.0,0.0,0.0,0.0,0.0,0.0,0.0,0.0,0.0,0.0,0.0,0.0,0.0,0.0,0.0,0.0,0.0,0.0,0.0,0.0,0.0,0.0,0.0,0.0,0.0,0.0,0.0,0.0,0.0,0.0,0.0,0.0,0.0,0.0,0.0,0.0,0.0,0.0,0.0,0.0,0.0,0.0,0.0,0.0,0.0,0.0,0.0,0.0,0.0,0.0,0.0,0.0,0.0,0.0,0.0,0.0,0.0,0.0,0.0,0.0,0.0,0.0,0.0,0.0,0.0,0.0,0.0,0.0,0.0,0.0,0.0,0.0,0.0,0.0,0.0,0.0,0.0,0.0,0.0,0.0,0.0,0.0,0.0,0.0,0.0,0.0,0.0,0.0,0.0,0.0,0.0,0.0,0.0,0.0,0.0,0.0,0.0,0.0,0.0,0.0,0.0,0.0,0.0,0.0,0.0,0.0,0.0,0.0,0.0,0.0,0.0,0.0,0.0,0.0,0.0,0.0,0.0,0.0,0.0
0.8119321343715135,0.8362855926410008,0.863377802284243,0.8900435312015996,0.9152239265404439,0.9368069773384924,0.9530273667792947,0.9627478515653504,0.9644219827898727,0.9599023236619194,0.9507453772157972,0.9389492410363527,0.9265477117624341,0.9140016189690239,0.9037620796407437,0.8965150911573372,0.8922457032477072,0.8903475719595179,0.8885948352652702,0.8873026525355846,0.8858708609785875,0.8840033500857144,0.8817132681484231,0.8780361581446426,0.8747218677593942,0.8724605896473814,0.8718124657605447,0.8730789643373283,0.8750590587131797,0.8787840951426695,0.8839961862235278,0.8902786156002365,0.8971124582006181,0.9027640059626735,0.9080741925392556,0.912911528281323,0.9172529890925126,0.921145952063908,0.9234847655563303,0.9256810038730874,0.9280033938509279,0.9306153160458577,0.9335386001865476,0.9354687782947172,0.9376030600114548,0.9400024741724428,0.9427460900845602,0.9459312483091872,0.9484399124382845,0.9517355667215919,0.9560151478096541,0.9612833193731074,0.967304118984504,0.972355748864366,0.9773490222899056,0.9819077365149216,0.9857296660736934,0.9886769896598206,0.9895031801847005,0.9900528188162042,0.9908617930387267,0.9923456946138011,0.9946637531206285,0.9963573092094657,0.9984538944843708,1.0003728153173306,1.0013556321085497,1.0006505165814363,0.0,0.0,0.0,0.0,0.0,0.0,0.0,0.0,0.0,0.0,0.0,0.0,0.0,0.0,0.0,0.0,0.0,0.0,0.0,0.0,0.0,0.0,0.0,0.0,0.0,0.0,0.0,0.0,0.0,0.0,0.0,0.0,0.0,0.0,0.0,0.0,0.0,0.0,0.0,0.0,0.0,0.0,0.0,0.0,0.0,0.0,0.0,0.0,0.0,0.0,0.0,0.0,0.0,0.0,0.0,0.0,0.0,0.0,0.0,0.0,0.0,0.0,0.0,0.0,0.0,0.0,0.0,0.0,0.0,0.0,0.0,0.0,0.0,0.0,0.0,0.0,0.0,0.0,0.0,0.0,0.0,0.0,0.0,0.0,0.0,0.0,0.0,0.0,0.0,0.0,0.0,0.0,0.0,0.0,0.0,0.0,0.0,0.0,0.0,0.0,0.0,0.0,0.0,0.0,0.0,0.0,0.0,0.0,0.0,0.0,0.0,0.0,0.0,0.0,0.0,0.0,0.0,0.0,0.0,0.0,0.0,0.0,0.0,0.0,0.0,0.0,0.0,0.0,0.0,0.0,0.0,0.0,0.0,0.0,0.0,0.0,0.0,0.0,0.0,0.0,0.0,0.0,0.0,0.0,0.0,0.0,0.0,0.0,0.0,0.0,0.0,0.0,0.0,0.0,0.0,0.0,0.0,0.0,0.0,0.0,0.0,0.0,0.0,0.0,0.0,0.0,0.0,0.0,0.0,0.0,0.0,0.0,0.0,0.0,0.0,0.0,0.0,0.0,0.0,0.0,0.0,0.0,0.0,0.0,0.0,0.0,0.0,0.0,0.0,0.0,0.0,0.0,0.0,0.0,0.0,0.0,0.0,0.0,0.0,0.0,0.0,0.0,0.0,0.0,0.0,0.0,0.0,0.0,0.0,0.0,0.0,0.0,0.0,0.0,0.0,0.0,0.0,0.0,0.0,0.0,0.0,0.0,0.0,0.0,0.0,0.0,0.0,0.0,0.0,0.0,0.0,0.0
0.516510198229782,0.5103208373368783,0.503943927150831,0.4966510689684669,0.48956823451391235,0.48290354867772156,0.476786137863941,0.471234823075849,0.4654814501620362,0.46025997983557776,0.4552426689221133,0.4500325044910066,0.44433844089874924,0.43746522671823984,0.4306654574567525,0.4245489009450763,0.4198737829971769,0.4174420587216494,0.4172840463584558,0.42074822875542217,0.42780389269967334,0.43783503895143816,0.4497094409954035,0.4612716562788586,0.4717717343351383,0.4795949730660355,0.48332482692593154,0.4819768232691577,0.4745116032508719,0.46209373156534267,0.44561451312453265,0.42637449067482985,0.4059223512550114,0.3852421340445314,0.3665756194666495,0.3509336434521261,0.33874377215804,0.3298678792408651,0.32315600554469964,0.31852645449933686,0.3150322192748433,0.3117968360223602,0.3082149036264012,0.3035727859795332,0.29871130231576554,0.2940008703229106,0.2898448007277141,0.2865619280119373,0.2838847156453054,0.2823622770666508,0.28169438249401346,0.2814146173749333,0.28106087829581533,0.279959277111823,0.2786252679211462,0.27722642960572413,0.2760748670285493,0.2755598285796934,0.2757143922486108,0.2772753468708602,0.280190260078089,0.28410814869550177,0.2884803318345879,0.29240177324219513,0.2958539555720837,0.2985117051798124,0.300292698018283,0.30140083508948234,0.0,0.0,0.0,0.0,0.0,0.0,0.0,0.0,0.0,0.0,0.0,0.0,0.0,0.0,0.0,0.0,0.0,0.0,0.0,0.0,0.0,0.0,0.0,0.0,0.0,0.0,0.0,0.0,0.0,0.0,0.0,0.0,0.0,0.0,0.0,0.0,0.0,0.0,0.0,0.0,0.0,0.0,0.0,0.0,0.0,0.0,0.0,0.0,0.0,0.0,0.0,0.0,0.0,0.0,0.0,0.0,0.0,0.0,0.0,0.0,0.0,0.0,0.0,0.0,0.0,0.0,0.0,0.0,0.0,0.0,0.0,0.0,0.0,0.0,0.0,0.0,0.0,0.0,0.0,0.0,0.0,0.0,0.0,0.0,0.0,0.0,0.0,0.0,0.0,0.0,0.0,0.0,0.0,0.0,0.0,0.0,0.0,0.0,0.0,0.0,0.0,0.0,0.0,0.0,0.0,0.0,0.0,0.0,0.0,0.0,0.0,0.0,0.0,0.0,0.0,0.0,0.0,0.0,0.0,0.0,0.0,0.0,0.0,0.0,0.0,0.0,0.0,0.0,0.0,0.0,0.0,0.0,0.0,0.0,0.0,0.0,0.0,0.0,0.0,0.0,0.0,0.0,0.0,0.0,0.0,0.0,0.0,0.0,0.0,0.0,0.0,0.0,0.0,0.0,0.0,0.0,0.0,0.0,0.0,0.0,0.0,0.0,0.0,0.0,0.0,0.0,0.0,0.0,0.0,0.0,0.0,0.0,0.0,0.0,0.0,0.0,0.0,0.0,0.0,0.0,0.0,0.0,0.0,0.0,0.0,0.0,0.0,0.0,0.0,0.0,0.0,0.0,0.0,0.0,0.0,0.0,0.0,0.0,0.0,0.0,0.0,0.0,0.0,0.0,0.0,0.0,0.0,0.0,0.0,0.0,0.0,0.0,0.0,0.0,0.0,0.0,0.0,0.0,0.0,0.0,0.0,0.0,0.0,0.0,0.0,0.0,0.0,0.0,0.0,0.0,0.0,0.0
0.14104388770187487,0.13560618192865798,0.13065888060654915,0.12570566038370767,0.12042827335907946,0.11461168788035979,0.1086972600327981,0.10297893544522393,0.09777428208910763,0.0933428676357038,0.08967043245047794,0.0869949650559042,0.08508792603410989,0.08358826159596397,0.0821205085455132,0.08025413729087208,0.07814401375130305,0.07579539814423952,0.07331895346578336,0.07089814945532258,0.06858115253191616,0.06680036673100832,0.06555633571477876,0.06470770929882093,0.06403404689459954,0.06316048081913028,0.06218612511824491,0.060938491774762564,0.059286362468853715,0.05716994433387652,0.054466020967808844,0.05153776239745392,0.04843315859014681,0.045180717266350846,0.04182376818603312,0.038332890589852564,0.035051674557221114,0.03201410429706569,0.029184495090207502,0.026477592038189713,0.023707716356539985,0.02095240226106162,0.018048833006318557,0.014858763480434464,0.011341593888914684,0.007560526090657844,0.0038903068632843707,0.0006008721602506173,-0.0020376067040835037,-0.003794404260360346,-0.004522104577503746,-0.004115076826669157,-0.0027417926974283966,-0.0007163934116979568,0.0015729250241123818,0.003665353329801617,0.005388030411315622,0.006545000710700921,0.007054516488293089,0.00694025430858511,0.0061440341232027644,0.004993132722884518,0.0036738973857874694,0.0023443453396844137,0.0011085529336323317,-8.726153713226022e-05,-0.0011618574874159855,-0.0022041965605788315,0.0,0.0,0.0,0.0,0.0,0.0,0.0,0.0,0.0,0.0,0.0,0.0,0.0,0.0,0.0,0.0,0.0,0.0,0.0,0.0,0.0,0.0,0.0,0.0,0.0,0.0,0.0,0.0,0.0,0.0,0.0,0.0,0.0,0.0,0.0,0.0,0.0,0.0,0.0,0.0,0.0,0.0,0.0,0.0,0.0,0.0,0.0,0.0,0.0,0.0,0.0,0.0,0.0,0.0,0.0,0.0,0.0,0.0,0.0,0.0,0.0,0.0,0.0,0.0,0.0,0.0,0.0,0.0,0.0,0.0,0.0,0.0,0.0,0.0,0.0,0.0,0.0,0.0,0.0,0.0,0.0,0.0,0.0,0.0,0.0,0.0,0.0,0.0,0.0,0.0,0.0,0.0,0.0,0.0,0.0,0.0,0.0,0.0,0.0,0.0,0.0,0.0,0.0,0.0,0.0,0.0,0.0,0.0,0.0,0.0,0.0,0.0,0.0,0.0,0.0,0.0,0.0,0.0,0.0,0.0,0.0,0.0,0.0,0.0,0.0,0.0,0.0,0.0,0.0,0.0,0.0,0.0,0.0,0.0,0.0,0.0,0.0,0.0,0.0,0.0,0.0,0.0,0.0,0.0,0.0,0.0,0.0,0.0,0.0,0.0,0.0,0.0,0.0,0.0,0.0,0.0,0.0,0.0,0.0,0.0,0.0,0.0,0.0,0.0,0.0,0.0,0.0,0.0,0.0,0.0,0.0,0.0,0.0,0.0,0.0,0.0,0.0,0.0,0.0,0.0,0.0,0.0,0.0,0.0,0.0,0.0,0.0,0.0,0.0,0.0,0.0,0.0,0.0,0.0,0.0,0.0,0.0,0.0,0.0,0.0,0.0,0.0,0.0,0.0,0.0,0.0,0.0,0.0,0.0,0.0,0.0,0.0,0.0,0.0,0.0,0.0,0.0,0.0,0.0,0.0,0.0,0.0,0.0,0.0,0.0,0.0,0.0,0.0,0.0,0.0,0.0,0.0
0.10069726137786131,0.11585837214857515,0.122350272886335,0.12003230636023729,0.10975520044093476,0.09327263163336777,0.07289345286844341,0.051094148859241975,0.030194867115254112,0.011908594706178168,-0.0027110909460809646,-0.013317885093394639,-0.020161975167851058,-0.02384227079713564,-0.025250815546942532,-0.025251354031468123,-0.024578124593348016,-0.023774690522523716,-0.023145347259312235,-0.022985894985742144,-0.023501351660005887,-0.024896911966971056,-0.027387405877196385,-0.031106123400039976,-0.03623247070343102,-0.042750417611037234,-0.05044702404079886,-0.058897056183174985,-0.06743655283443901,-0.07544347714942765,-0.08225178809663222,-0.08733534472389784,-0.0904067064891536,-0.09140607289168562,-0.0906989757888198,-0.08877855167638771,-0.08622969665092492,-0.08360651924643672,-0.08128964853059095,-0.07955393508159311,-0.07837692113734088,-0.07755651054800049,-0.07680633200371985,-0.07585072253870771,-0.07456607770605275,-0.07288572598848114,-0.07086200871410392,-0.06864201418859485,-0.06645247224587657,-0.0644432922741039,-0.06274635676453029,-0.06142497722006376,-0.06047769637346985,-0.05993061592799439,-0.05959425009261394,-0.059417159636404294,-0.05936279646415132,-0.059389657591378445,-0.0594586262948652,-0.059443438979698365,-0.059269999494052775,-0.05889120984365716,-0.05830161880928705,-0.057514828966605085,-0.056642612268045255,-0.05578189435488264,-0.05501197850695993,-0.05436615792103425,0.0,0.0,0.0,0.0,0.0,0.0,0.0,0.0,0.0,0.0,0.0,0.0,0.0,0.0,0.0,0.0,0.0,0.0,0.0,0.0,0.0,0.0,0.0,0.0,0.0,0.0,0.0,0.0,0.0,0.0,0.0,0.0,0.0,0.0,0.0,0.0,0.0,0.0,0.0,0.0,0.0,0.0,0.0,0.0,0.0,0.0,0.0,0.0,0.0,0.0,0.0,0.0,0.0,0.0,0.0,0.0,0.0,0.0,0.0,0.0,0.0,0.0,0.0,0.0,0.0,0.0,0.0,0.0,0.0,0.0,0.0,0.0,0.0,0.0,0.0,0.0,0.0,0.0,0.0,0.0,0.0,0.0,0.0,0.0,0.0,0.0,0.0,0.0,0.0,0.0,0.0,0.0,0.0,0.0,0.0,0.0,0.0,0.0,0.0,0.0,0.0,0.0,0.0,0.0,0.0,0.0,0.0,0.0,0.0,0.0,0.0,0.0,0.0,0.0,0.0,0.0,0.0,0.0,0.0,0.0,0.0,0.0,0.0,0.0,0.0,0.0,0.0,0.0,0.0,0.0,0.0,0.0,0.0,0.0,0.0,0.0,0.0,0.0,0.0,0.0,0.0,0.0,0.0,0.0,0.0,0.0,0.0,0.0,0.0,0.0,0.0,0.0,0.0,0.0,0.0,0.0,0.0,0.0,0.0,0.0,0.0,0.0,0.0,0.0,0.0,0.0,0.0,0.0,0.0,0.0,0.0,0.0,0.0,0.0,0.0,0.0,0.0,0.0,0.0,0.0,0.0,0.0,0.0,0.0,0.0,0.0,0.0,0.0,0.0,0.0,0.0,0.0,0.0,0.0,0.0,0.0,0.0,0.0,0.0,0.0,0.0,0.0,0.0,0.0,0.0,0.0,0.0,0.0,0.0,0.0,0.0,0.0,0.0,0.0,0.0,0.0,0.0,0.0,0.0,0.0,0.0,0.0,0.0,0.0,0.0,0.0,0.0,0.0,0.0,0.0,0.0,0.0
0.12101010555840973,0.12645559518541238,0.12599368936155045,0.12036186816820112,0.1108713808903036,0.09916559062349967,0.08690464418052574,0.07535268137669479,0.06551151164498985,0.057752761493688895,0.05190102399850665,0.04735369317563909,0.04311991637741187,0.038540220733759435,0.033082877321896194,0.026585352035878113,0.019275847548575226,0.01156447152269475,0.004278310335017915,-0.0018508122343638017,-0.006283110424336934,-0.008801998078488646,-0.009654442158879223,-0.009203742934246273,-0.00803075146868118,-0.006711163737092147,-0.005668382363047979,-0.0051416047759696715,-0.004972470507097177,-0.004797671123745135,-0.004135224817710469,-0.0025347666476073167,0.00025491296051032236,0.004289288047312628,0.009371703756809747,0.015114741990134982,0.021044391248285995,0.02669820969781772,0.03181021010783556,0.036345047468172235,0.040497843758306465,0.044623549144179306,0.04909847142880679,0.05425145428598164,0.0602396866056442,0.06699069611343625,0.07421020284890018,0.08140091321969464,0.08817688344957621,0.09419943558610902,0.09935350887305915,0.10379685655362103,0.10783575499838266,0.11213465246049889,0.1171704751693194,0.12320409982135952,0.13016910894757364,0.13756525601506267,0.14476580775288156,0.15087333057769337,0.1550135081460775,0.15654136134152624,0.1551440846154733,0.15108314513470372,0.14496113037983474,0.1376397986391691,0.13004060200750756,0.122906230657874,0.0,0.0,0.0,0.0,0.0,0.0,0.0,0.0,0.0,0.0,0.0,0.0,0.0,0.0,0.0,0.0,0.0,0.0,0.0,0.0,0.0,0.0,0.0,0.0,0.0,0.0,0.0,0.0,0.0,0.0,0.0,0.0,0.0,0.0,0.0,0.0,0.0,0.0,0.0,0.0,0.0,0.0,0.0,0.0,0.0,0.0,0.0,0.0,0.0,0.0,0.0,0.0,0.0,0.0,0.0,0.0,0.0,0.0,0.0,0.0,0.0,0.0,0.0,0.0,0.0,0.0,0.0,0.0,0.0,0.0,0.0,0.0,0.0,0.0,0.0,0.0,0.0,0.0,0.0,0.0,0.0,0.0,0.0,0.0,0.0,0.0,0.0,0.0,0.0,0.0,0.0,0.0,0.0,0.0,0.0,0.0,0.0,0.0,0.0,0.0,0.0,0.0,0.0,0.0,0.0,0.0,0.0,0.0,0.0,0.0,0.0,0.0,0.0,0.0,0.0,0.0,0.0,0.0,0.0,0.0,0.0,0.0,0.0,0.0,0.0,0.0,0.0,0.0,0.0,0.0,0.0,0.0,0.0,0.0,0.0,0.0,0.0,0.0,0.0,0.0,0.0,0.0,0.0,0.0,0.0,0.0,0.0,0.0,0.0,0.0,0.0,0.0,0.0,0.0,0.0,0.0,0.0,0.0,0.0,0.0,0.0,0.0,0.0,0.0,0.0,0.0,0.0,0.0,0.0,0.0,0.0,0.0,0.0,0.0,0.0,0.0,0.0,0.0,0.0,0.0,0.0,0.0,0.0,0.0,0.0,0.0,0.0,0.0,0.0,0.0,0.0,0.0,0.0,0.0,0.0,0.0,0.0,0.0,0.0,0.0,0.0,0.0,0.0,0.0,0.0,0.0,0.0,0.0,0.0,0.0,0.0,0.0,0.0,0.0,0.0,0.0,0.0,0.0,0.0,0.0,0.0,0.0,0.0,0.0,0.0,0.0,0.0,0.0,0.0,0.0,0.0,0.0
0.09690404012378974,0.11029057522653235,0.11639683648699287,0.11486308520709372,0.10645700197311524,0.09264750196758434,0.07542173176472813,0.056949608837551305,0.03910678632748179,0.02358155728250414,0.011370020853121943,0.002784450195977855,-0.002497618811890257,-0.005414611070331525,-0.006863508364763897,-0.0077857950868911435,-0.008878769379481543,-0.010484859581737782,-0.012679777496853431,-0.015069892976579902,-0.017142163079249113,-0.01839025694256827,-0.018472100351585308,-0.017359190832688505,-0.015204458999289102,-0.012351240194421983,-0.009214991841847726,-0.006165883338304739,-0.0034656987776318913,-0.0011357422932227878,0.0010184841365281677,0.003326723566810666,0.006140333674975831,0.009702673492720188,0.014083312763878635,0.01919114467139512,0.024772964047346906,0.03048417428057823,0.035978978328155005,0.041030475977305074,0.04565930910560684,0.0501173730069691,0.05482801488618063,0.060259291962130895,0.06679148759230862,0.0746451616323487,0.08375137150222359,0.09371999185617812,0.10383284042452147,0.11337148089092462,0.12161806717093991,0.12808063309843154,0.1326119688261756,0.1353281426331801,0.13691856922606305,0.13807567401825283,0.13943776996431462,0.14140746013295807,0.1439463411068886,0.14680542362865545,0.14933449759028566,0.15072231418773613,0.15020295143974055,0.147204961944414,0.14163601494932715,0.13381805200843114,0.12444550707889446,0.11442785605546794,0.0,0.0,0.0,0.0,0.0,0.0,0.0,0.0,0.0,0.0,0.0,0.0,0.0,0.0,0.0,0.0,0.0,0.0,0.0,0.0,0.0,0.0,0.0,0.0,0.0,0.0,0.0,0.0,0.0,0.0,0.0,0.0,0.0,0.0,0.0,0.0,0.0,0.0,0.0,0.0,0.0,0.0,0.0,0.0,0.0,0.0,0.0,0.0,0.0,0.0,0.0,0.0,0.0,0.0,0.0,0.0,0.0,0.0,0.0,0.0,0.0,0.0,0.0,0.0,0.0,0.0,0.0,0.0,0.0,0.0,0.0,0.0,0.0,0.0,0.0,0.0,0.0,0.0,0.0,0.0,0.0,0.0,0.0,0.0,0.0,0.0,0.0,0.0,0.0,0.0,0.0,0.0,0.0,0.0,0.0,0.0,0.0,0.0,0.0,0.0,0.0,0.0,0.0,0.0,0.0,0.0,0.0,0.0,0.0,0.0,0.0,0.0,0.0,0.0,0.0,0.0,0.0,0.0,0.0,0.0,0.0,0.0,0.0,0.0,0.0,0.0,0.0,0.0,0.0,0.0,0.0,0.0,0.0,0.0,0.0,0.0,0.0,0.0,0.0,0.0,0.0,0.0,0.0,0.0,0.0,0.0,0.0,0.0,0.0,0.0,0.0,0.0,0.0,0.0,0.0,0.0,0.0,0.0,0.0,0.0,0.0,0.0,0.0,0.0,0.0,0.0,0.0,0.0,0.0,0.0,0.0,0.0,0.0,0.0,0.0,0.0,0.0,0.0,0.0,0.0,0.0,0.0,0.0,0.0,0.0,0.0,0.0,0.0,0.0,0.0,0.0,0.0,0.0,0.0,0.0,0.0,0.0,0.0,0.0,0.0,0.0,0.0,0.0,0.0,0.0,0.0,0.0,0.0,0.0,0.0,0.0,0.0,0.0,0.0,0.0,0.0,0.0,0.0,0.0,0.0,0.0,0.0,0.0,0.0,0.0,0.0,0.0,0.0,0.0,0.0,0.0,0.0
0.16079931332681865,0.17354227620655513,0.17961743172307376,0.17866837043713527,0.17154855596461235,0.15966926180203145,0.14487974561296985,0.12913945211299568,0.11398287651994261,0.10090878458523321,0.09067105242867583,0.08339660083983627,0.07866147250291756,0.07543331878258093,0.07300607694090627,0.07062252658307475,0.06780654352537287,0.06443035900040953,0.06050956006176654,0.05663129366306828,0.05334210510040447,0.051111448909404236,0.050199245497901474,0.05047135431393389,0.051781494288782315,0.05374198016081534,0.05592735338545406,0.05798885028980548,0.05963739654760437,0.060981994759494396,0.06224216555809054,0.06373784878883076,0.06577845508170949,0.06847741154340369,0.07193233376961686,0.07600625975681126,0.0804263652201237,0.08486783212161396,0.08897772450149179,0.09271634676267554,0.09621090131978689,0.09980034774315019,0.10395720916151845,0.10907957137665492,0.1155909037451089,0.12361892099192254,0.13297466635483088,0.14315492843293842,0.15330040770876066,0.16278085224672076,0.17095434926219563,0.17746774475287688,0.18235264770435836,0.1858373181382048,0.188840370140579,0.1921123612372431,0.19622716558094444,0.20139243758944797,0.20719292908419534,0.21308773744109322,0.21802154924864797,0.22081425146671027,0.22043222747453764,0.21612032620920849,0.20793648364333306,0.19641683961964992,0.18259161923956402,0.16778023712276632,0.0,0.0,0.0,0.0,0.0,0.0,0.0,0.0,0.0,0.0,0.0,0.0,0.0,0.0,0.0,0.0,0.0,0.0,0.0,0.0,0.0,0.0,0.0,0.0,0.0,0.0,0.0,0.0,0.0,0.0,0.0,0.0,0.0,0.0,0.0,0.0,0.0,0.0,0.0,0.0,0.0,0.0,0.0,0.0,0.0,0.0,0.0,0.0,0.0,0.0,0.0,0.0,0.0,0.0,0.0,0.0,0.0,0.0,0.0,0.0,0.0,0.0,0.0,0.0,0.0,0.0,0.0,0.0,0.0,0.0,0.0,0.0,0.0,0.0,0.0,0.0,0.0,0.0,0.0,0.0,0.0,0.0,0.0,0.0,0.0,0.0,0.0,0.0,0.0,0.0,0.0,0.0,0.0,0.0,0.0,0.0,0.0,0.0,0.0,0.0,0.0,0.0,0.0,0.0,0.0,0.0,0.0,0.0,0.0,0.0,0.0,0.0,0.0,0.0,0.0,0.0,0.0,0.0,0.0,0.0,0.0,0.0,0.0,0.0,0.0,0.0,0.0,0.0,0.0,0.0,0.0,0.0,0.0,0.0,0.0,0.0,0.0,0.0,0.0,0.0,0.0,0.0,0.0,0.0,0.0,0.0,0.0,0.0,0.0,0.0,0.0,0.0,0.0,0.0,0.0,0.0,0.0,0.0,0.0,0.0,0.0,0.0,0.0,0.0,0.0,0.0,0.0,0.0,0.0,0.0,0.0,0.0,0.0,0.0,0.0,0.0,0.0,0.0,0.0,0.0,0.0,0.0,0.0,0.0,0.0,0.0,0.0,0.0,0.0,0.0,0.0,0.0,0.0,0.0,0.0,0.0,0.0,0.0,0.0,0.0,0.0,0.0,0.0,0.0,0.0,0.0,0.0,0.0,0.0,0.0,0.0,0.0,0.0,0.0,0.0,0.0,0.0,0.0,0.0,0.0,0.0,0.0,0.0,0.0,0.0,0.0,0.0,0.0,0.0,0.0,0.0,0.0
0.1598641296061787,0.1785406916478424,0.19145491814596866,0.19769679160211326,0.1970196477459772,0.19039730079061334,0.179309010504344,0.16560825602066012,0.15118353585940542,0.13742561229372097,0.1256619233873056,0.11641894698071989,0.10961249325195592,0.10467028011669754,0.10050010586055447,0.09648176586187238,0.09198363855782578,0.08671124711867277,0.08074525874694984,0.07429506434585514,0.06813676691008924,0.06290012339786041,0.05906020894089601,0.05682023737720211,0.05594479841517951,0.056208206750105474,0.0571293604233674,0.05822035484072135,0.059113126553258726,0.05954113912995143,0.059678823664629246,0.0597992696460388,0.060264534535457125,0.06140601572931534,0.0633433076876697,0.06615657265064194,0.06966498157623151,0.07354692823361306,0.07743853618968617,0.08097822653705486,0.08412431775164764,0.08700500895525995,0.08996238790526863,0.093471056650057,0.09794453293840978,0.10379641405408772,0.11113681789360351,0.11976196364982579,0.12916774375882334,0.1385323629929604,0.14725297448983396,0.15471293624551782,0.16057357239258555,0.16486443086758967,0.1678141239198011,0.17029450017898756,0.17299409896151952,0.17643089401322712,0.1807889823005235,0.1857006997671207,0.19070866536452602,0.1948786586045256,0.1971761794033848,0.19671353373345732,0.19286771797998575,0.1857534747925059,0.1758660868391879,0.1641057673210075,0.0,0.0,0.0,0.0,0.0,0.0,0.0,0.0,0.0,0.0,0.0,0.0,0.0,0.0,0.0,0.0,0.0,0.0,0.0,0.0,0.0,0.0,0.0,0.0,0.0,0.0,0.0,0.0,0.0,0.0,0.0,0.0,0.0,0.0,0.0,0.0,0.0,0.0,0.0,0.0,0.0,0.0,0.0,0.0,0.0,0.0,0.0,0.0,0.0,0.0,0.0,0.0,0.0,0.0,0.0,0.0,0.0,0.0,0.0,0.0,0.0,0.0,0.0,0.0,0.0,0.0,0.0,0.0,0.0,0.0,0.0,0.0,0.0,0.0,0.0,0.0,0.0,0.0,0.0,0.0,0.0,0.0,0.0,0.0,0.0,0.0,0.0,0.0,0.0,0.0,0.0,0.0,0.0,0.0,0.0,0.0,0.0,0.0,0.0,0.0,0.0,0.0,0.0,0.0,0.0,0.0,0.0,0.0,0.0,0.0,0.0,0.0,0.0,0.0,0.0,0.0,0.0,0.0,0.0,0.0,0.0,0.0,0.0,0.0,0.0,0.0,0.0,0.0,0.0,0.0,0.0,0.0,0.0,0.0,0.0,0.0,0.0,0.0,0.0,0.0,0.0,0.0,0.0,0.0,0.0,0.0,0.0,0.0,0.0,0.0,0.0,0.0,0.0,0.0,0.0,0.0,0.0,0.0,0.0,0.0,0.0,0.0,0.0,0.0,0.0,0.0,0.0,0.0,0.0,0.0,0.0,0.0,0.0,0.0,0.0,0.0,0.0,0.0,0.0,0.0,0.0,0.0,0.0,0.0,0.0,0.0,0.0,0.0,0.0,0.0,0.0,0.0,0.0,0.0,0.0,0.0,0.0,0.0,0.0,0.0,0.0,0.0,0.0,0.0,0.0,0.0,0.0,0.0,0.0,0.0,0.0,0.0,0.0,0.0,0.0,0.0,0.0,0.0,0.0,0.0,0.0,0.0,0.0,0.0,0.0,0.0,0.0,0.0,0.0,0.0,0.0,0.0
0.00034873063645073614,-0.0014491229806295732,-0.002450398179606575,-0.0030445588412916125,-0.0035903543579025835,-0.004330771040663808,-0.0053774138286156,-0.006587948497682325,-0.007755971281549546,-0.008633350343388696,-0.00901027271777835,-0.008821000613759327,-0.0080460549234599,-0.006850860725469335,-0.005486196263271994,-0.004206805462722056,-0.00324203600060066,-0.0025361503138950827,-0.001907169523812375,-0.001009589176372308,0.0005966617923342403,0.0032656313211971173,0.00740075536531272,0.013125841011869798,0.020288226868474788,0.028442075862287794,0.036775357515341535,0.0445428824116363,0.05087236058586151,0.05498062045967479,0.056287489932241336,0.05436076587282788,0.049411675922204336,0.041901751359580755,0.032597462730919576,0.02245947353228949,0.012371256728017387,0.0033839056198068746,-0.0037779452440638173,-0.008709999185652921,-0.01136854286766236,-0.012153862299545976,-0.011470413635447672,-0.009919809911931195,-0.008070063815068881,-0.006345653827217969,-0.005022429219749556,-0.004050604368566512,-0.0032668778545821135,-0.0024318586780142314,-0.0013227647867735802,0.00019224774486983703,0.002117298518497989,0.004336968759696195,0.006664651431695177,0.008913677555714733,0.010975222095741494,0.01284676722151107,0.014665505502094365,0.01667276425609612,0.019150119898203047,0.02235085313851436,0.026381412153105722,0.03119544914147357,0.03657788121863741,0.04219215168424821,0.04767988683918617,0.0527359287540427,0.0,0.0,0.0,0.0,0.0,0.0,0.0,0.0,0.0,0.0,0.0,0.0,0.0,0.0,0.0,0.0,0.0,0.0,0.0,0.0,0.0,0.0,0.0,0.0,0.0,0.0,0.0,0.0,0.0,0.0,0.0,0.0,0.0,0.0,0.0,0.0,0.0,0.0,0.0,0.0,0.0,0.0,0.0,0.0,0.0,0.0,0.0,0.0,0.0,0.0,0.0,0.0,0.0,0.0,0.0,0.0,0.0,0.0,0.0,0.0,0.0,0.0,0.0,0.0,0.0,0.0,0.0,0.0,0.0,0.0,0.0,0.0,0.0,0.0,0.0,0.0,0.0,0.0,0.0,0.0,0.0,0.0,0.0,0.0,0.0,0.0,0.0,0.0,0.0,0.0,0.0,0.0,0.0,0.0,0.0,0.0,0.0,0.0,0.0,0.0,0.0,0.0,0.0,0.0,0.0,0.0,0.0,0.0,0.0,0.0,0.0,0.0,0.0,0.0,0.0,0.0,0.0,0.0,0.0,0.0,0.0,0.0,0.0,0.0,0.0,0.0,0.0,0.0,0.0,0.0,0.0,0.0,0.0,0.0,0.0,0.0,0.0,0.0,0.0,0.0,0.0,0.0,0.0,0.0,0.0,0.0,0.0,0.0,0.0,0.0,0.0,0.0,0.0,0.0,0.0,0.0,0.0,0.0,0.0,0.0,0.0,0.0,0.0,0.0,0.0,0.0,0.0,0.0,0.0,0.0,0.0,0.0,0.0,0.0,0.0,0.0,0.0,0.0,0.0,0.0,0.0,0.0,0.0,0.0,0.0,0.0,0.0,0.0,0.0,0.0,0.0,0.0,0.0,0.0,0.0,0.0,0.0,0.0,0.0,0.0,0.0,0.0,0.0,0.0,0.0,0.0,0.0,0.0,0.0,0.0,0.0,0.0,0.0,0.0,0.0,0.0,0.0,0.0,0.0,0.0,0.0,0.0,0.0,0.0,0.0,0.0,0.0,0.0,0.0,0.0,0.0,0.0
0.12979302494003242,0.12689630311782193,0.12239088918487408,0.11717690714826492,0.11208135384359137,0.10765724988383704,0.10406177024150624,0.10100487780274295,0.09785700026138172,0.09383241037083785,0.08823370329155183,0.08058109762426255,0.07081269525285824,0.0592988651569681,0.04677484569537217,0.034186440759315526,0.022516995960770465,0.012594284080223742,0.004944512776758862,-0.00028271898009351215,-0.0033424256237761145,-0.0047048679228786595,-0.005001909124107931,-0.004863292899642694,-0.004794067932617106,-0.005099763975941279,-0.005856258382975726,-0.006960411538547274,-0.00819334080297638,-0.009305416885140699,-0.010062453388114052,-0.010384119605040928,-0.01031431849987225,-0.00999832807466291,-0.009624097132982372,-0.00934292209856346,-0.009241598645319489,-0.009348431957142824,-0.009615838894495977,-0.009942777380824046,-0.01021562762878142,-0.010305873963351139,-0.010197452753147365,-0.009939605361332106,-0.009619001805231314,-0.009359977458086031,-0.00914902809157786,-0.009042428880679345,-0.009081247259174956,-0.009295226229638586,-0.00978015994634945,-0.010451021204894315,-0.011373725225823195,-0.012611988236057685,-0.014173890186813998,-0.01604338550513332,-0.017858768281095137,-0.019261138407357915,-0.01981149278028659,-0.01905255414398941,-0.016690652725243862,-0.01235815865234789,-0.006045984015771511,0.001963204665054678,0.011091904014345576,0.020401863326432457,0.02901912270429763,0.03593943930314759,0.0,0.0,0.0,0.0,0.0,0.0,0.0,0.0,0.0,0.0,0.0,0.0,0.0,0.0,0.0,0.0,0.0,0.0,0.0,0.0,0.0,0.0,0.0,0.0,0.0,0.0,0.0,0.0,0.0,0.0,0.0,0.0,0.0,0.0,0.0,0.0,0.0,0.0,0.0,0.0,0.0,0.0,0.0,0.0,0.0,0.0,0.0,0.0,0.0,0.0,0.0,0.0,0.0,0.0,0.0,0.0,0.0,0.0,0.0,0.0,0.0,0.0,0.0,0.0,0.0,0.0,0.0,0.0,0.0,0.0,0.0,0.0,0.0,0.0,0.0,0.0,0.0,0.0,0.0,0.0,0.0,0.0,0.0,0.0,0.0,0.0,0.0,0.0,0.0,0.0,0.0,0.0,0.0,0.0,0.0,0.0,0.0,0.0,0.0,0.0,0.0,0.0,0.0,0.0,0.0,0.0,0.0,0.0,0.0,0.0,0.0,0.0,0.0,0.0,0.0,0.0,0.0,0.0,0.0,0.0,0.0,0.0,0.0,0.0,0.0,0.0,0.0,0.0,0.0,0.0,0.0,0.0,0.0,0.0,0.0,0.0,0.0,0.0,0.0,0.0,0.0,0.0,0.0,0.0,0.0,0.0,0.0,0.0,0.0,0.0,0.0,0.0,0.0,0.0,0.0,0.0,0.0,0.0,0.0,0.0,0.0,0.0,0.0,0.0,0.0,0.0,0.0,0.0,0.0,0.0,0.0,0.0,0.0,0.0,0.0,0.0,0.0,0.0,0.0,0.0,0.0,0.0,0.0,0.0,0.0,0.0,0.0,0.0,0.0,0.0,0.0,0.0,0.0,0.0,0.0,0.0,0.0,0.0,0.0,0.0,0.0,0.0,0.0,0.0,0.0,0.0,0.0,0.0,0.0,0.0,0.0,0.0,0.0,0.0,0.0,0.0,0.0,0.0,0.0,0.0,0.0,0.0,0.0,0.0,0.0,0.0,0.0,0.0,0.0,0.0,0.0,0.0
