-0.13966480446927373,-0.1340782122905028,-0.10055865921787709,-0.12290502793296089,-0.111731843575419,-0.12290502793296089,-0.09497206703910616,-0.0893854748603352,-0.08379888268156424,-0.0893854748603352,-0.0782122905027933,-0.07262569832402235,-0.0893854748603352,-0.0782122905027933,-0.10055865921787709,-0.0893854748603352,-0.08379888268156424,-0.08379888268156424,-0.0782122905027933,-0.0558659217877095,-0.0558659217877095,-0.0670391061452514,-0.061452513966480445,-0.0446927374301676,-0.03910614525139665,-0.0111731843575419,-0.03910614525139665,-0.0335195530726257,-0.0670391061452514,-0.0558659217877095,-0.05027932960893854,-0.07262569832402235,-0.061452513966480445,-0.0558659217877095,-0.03910614525139665,-0.03910614525139665,-0.0335195530726257,-0.05027932960893854,-0.0446927374301676,-0.061452513966480445,-0.07262569832402235,-0.08379888268156424,-0.0782122905027933,-0.0670391061452514,-0.03910614525139665,-0.061452513966480445,-0.061452513966480445,-0.08379888268156424,-0.08379888268156424,-0.0893854748603352,-0.0782122905027933,-0.0670391061452514,-0.0782122905027933,-0.08379888268156424,-0.0782122905027933,-0.08379888268156424,-0.0782122905027933,-0.0782122905027933,-0.07262569832402235,-0.0335195530726257,-0.0335195530726257,-0.0558659217877095,-0.0670391061452514,-0.0670391061452514,-0.0558659217877095,-0.08379888268156424,-0.0782122905027933,-0.05027932960893854,-0.0223463687150838,-0.00558659217877095,0.0446927374301676,0.07262569832402235,0.1340782122905028,0.16201117318435754,0.1452513966480447,0.111731843575419,0.05027932960893854,-0.1564245810055866,-0.48044692737430167,-0.7932960893854748,-0.888268156424581,-0.8770949720670391,-0.7932960893854748,-0.6368715083798882,-0.4860335195530726,-0.329608938547486,-0.24022346368715083,-0.15083798882681565,-0.111731843575419,-0.10055865921787709,-0.10055865921787709,-0.0893854748603352,-0.0893854748603352,-0.0782122905027933,-0.061452513966480445,-0.0558659217877095,-0.0782122905027933,-0.08379888268156424,-0.0893854748603352,-0.0782122905027933,-0.061452513966480445,-0.0335195530726257,-0.03910614525139665,-0.03910614525139665,-0.01675977653631285,-0.01675977653631285,-0.0446927374301676,0.0,0.0,-0.00558659217877095,0.00558659217877095,0.02793296089385475,0.02793296089385475,-0.01675977653631285,0.00558659217877095,0.0,-0.01675977653631285,-0.0223463687150838,-0.0111731843575419,-0.00558659217877095,0.01675977653631285,-0.0111731843575419,-0.02793296089385475,-0.02793296089385475,-0.0335195530726257,-0.0111731843575419,-0.01675977653631285,-0.00558659217877095,-0.0223463687150838,-0.0111731843575419,-0.0111731843575419,-0.0223463687150838,-0.01675977653631285,-0.01675977653631285,-0.03910614525139665,-0.0446927374301676,-0.03910614525139665,-0.0446927374301676,-0.061452513966480445,-0.0446927374301676,-0.061452513966480445,-0.05027932960893854,-0.05027932960893854,-0.02793296089385475,0.0,-0.0223463687150838,-0.0335195530726257,-0.02793296089385475,0.0,-0.0335195530726257,-0.00558659217877095,-0.00558659217877095,-0.01675977653631285,0.0223463687150838,0.03910614525139665,0.0335195530726257,0.0558659217877095,0.0558659217877095,0.0670391061452514,0.0558659217877095,0.03910614525139665,0.02793296089385475,0.05027932960893854,0.0670391061452514,0.0558659217877095,0.061452513966480445,0.05027932960893854,0.05027932960893854,0.0558659217877095,0.0670391061452514,0.0558659217877095,0.0558659217877095,0.061452513966480445,0.0782122905027933,0.061452513966480445,0.03910614525139665,0.0446927374301676,0.03910614525139665,0.05027932960893854,0.02793296089385475,0.0111731843575419,-0.00558659217877095,-0.01675977653631285,0.00558659217877095,-0.0223463687150838,-0.01675977653631285,-0.0223463687150838,-0.01675977653631285,-0.05027932960893854,-0.02793296089385475,-0.0223463687150838,-0.0446927374301676,-0.03910614525139665,-0.07262569832402235,-0.0446927374301676,-0.0670391061452514,-0.0111731843575419,-0.03910614525139665,-0.0335195530726257,-0.03910614525139665,-0.0446927374301676,-0.0446927374301676,-0.05027932960893854,-0.03910614525139665,-0.03910614525139665,-0.03910614525139665,-0.05027932960893854,-0.02793296089385475,-0.061452513966480445,-0.0670391061452514,-0.0670391061452514,-0.061452513966480445,-0.0558659217877095,-0.061452513966480445,-0.0893854748603352,-0.0782122905027933,-0.0782122905027933,-0.0670391061452514,-0.061452513966480445,-0.03910614525139665,-0.0558659217877095,-0.05027932960893854,-0.0893854748603352,-0.0558659217877095,-0.10055865921787709,-0.0670391061452514,-0.07262569832402235,-0.0782122905027933,-0.0670391061452514,-0.0670391061452514,-0.0782122905027933,-0.09497206703910616,-0.09497206703910616,-0.07262569832402235,-0.0670391061452514,-0.0446927374301676,-0.0446927374301676,-0.07262569832402235,-0.08379888268156424,-0.0446927374301676,-0.05027932960893854,-0.0446927374301676,-0.08379888268156424,-0.10055865921787709,-0.07262569832402235,-0.061452513966480445,-0.08379888268156424,-0.0335195530726257,-0.0446927374301676,-0.03910614525139665,-0.0558659217877095,-0.07262569832402235,-0.08379888268156424,-0.08379888268156424,-0.08379888268156424,-0.07262569832402235,-0.0446927374301676,-0.03910614525139665,-0.03910614525139665,-0.08379888268156424,-0.0446927374301676,-0.0558659217877095,-0.0670391061452514,-0.0446927374301676,-0.05027932960893854,-0.05027932960893854,-0.03910614525139665,-0.061452513966480445,-0.0446927374301676,-0.061452513966480445,-0.0558659217877095,-0.0335195530726257,-0.03910614525139665,-0.0558659217877095,-0.0893854748603352,-0.0558659217877095,-0.03910614525139665,-0.0335195530726257,-0.03910614525139665,-0.0446927374301676,-0.0335195530726257,-0.061452513966480445,-0.03910614525139665,-0.05027932960893854,-0.0223463687150838,-0.0446927374301676,-0.0335195530726257,-0.05027932960893854,-0.05027932960893854,-0.0558659217877095,-0.0335195530726257,-0.0782122905027933,-0.0670391061452514,-0.0782122905027933,-0.061452513966480445,0.0,0.0,0.0,0.0,0.0,N
-0.0782122905027933,-0.07262569832402235,-0.0335195530726257,-0.0335195530726257,-0.0558659217877095,-0.0670391061452514,-0.0670391061452514,-0.0558659217877095,-0.08379888268156424,-0.0782122905027933,-0.05027932960893854,-0.0223463687150838,-0.00558659217877095,0.0446927374301676,0.07262569832402235,0.1340782122905028,0.16201117318435754,0.1452513966480447,0.111731843575419,0.05027932960893854,-0.1564245810055866,-0.48044692737430167,-0.7932960893854748,-0.888268156424581,-0.8770949720670391,-0.7932960893854748,-0.6368715083798882,-0.4860335195530726,-0.329608938547486,-0.24022346368715083,-0.15083798882681565,-0.111731843575419,-0.10055865921787709,-0.10055865921787709,-0.0893854748603352,-0.0893854748603352,-0.0782122905027933,-0.061452513966480445,-0.0558659217877095,-0.0782122905027933,-0.08379888268156424,-0.0893854748603352,-0.0782122905027933,-0.061452513966480445,-0.0335195530726257,-0.03910614525139665,-0.03910614525139665,-0.01675977653631285,-0.01675977653631285,-0.0446927374301676,0.0,0.0,-0.00558659217877095,0.00558659217877095,0.02793296089385475,0.02793296089385475,-0.01675977653631285,0.00558659217877095,0.0,-0.01675977653631285,-0.0223463687150838,-0.0111731843575419,-0.00558659217877095,0.01675977653631285,-0.0111731843575419,-0.02793296089385475,-0.02793296089385475,-0.0335195530726257,-0.0111731843575419,-0.01675977653631285,-0.00558659217877095,-0.0223463687150838,-0.0111731843575419,-0.0111731843575419,-0.0223463687150838,-0.01675977653631285,-0.01675977653631285,-0.03910614525139665,-0.0446927374301676,-0.03910614525139665,-0.0446927374301676,-0.061452513966480445,-0.0446927374301676,-0.061452513966480445,-0.05027932960893854,-0.05027932960893854,-0.02793296089385475,0.0,-0.0223463687150838,-0.0335195530726257,-0.02793296089385475,0.0,-0.0335195530726257,-0.00558659217877095,-0.00558659217877095,-0.01675977653631285,0.0223463687150838,0.03910614525139665,0.0335195530726257,0.0558659217877095,0.0558659217877095,0.0670391061452514,0.0558659217877095,0.03910614525139665,0.02793296089385475,0.05027932960893854,0.0670391061452514,0.0558659217877095,0.061452513966480445,0.05027932960893854,0.05027932960893854,0.0558659217877095,0.0670391061452514,0.0558659217877095,0.0558659217877095,0.061452513966480445,0.0782122905027933,0.061452513966480445,0.03910614525139665,0.0446927374301676,0.03910614525139665,0.05027932960893854,0.02793296089385475,0.0111731843575419,-0.00558659217877095,-0.01675977653631285,0.00558659217877095,-0.0223463687150838,-0.01675977653631285,-0.0223463687150838,-0.01675977653631285,-0.05027932960893854,-0.02793296089385475,-0.0223463687150838,-0.0446927374301676,-0.03910614525139665,-0.07262569832402235,-0.0446927374301676,-0.0670391061452514,-0.0111731843575419,-0.03910614525139665,-0.0335195530726257,-0.03910614525139665,-0.0446927374301676,-0.0446927374301676,-0.05027932960893854,-0.03910614525139665,-0.03910614525139665,-0.03910614525139665,-0.05027932960893854,-0.02793296089385475,-0.061452513966480445,-0.0670391061452514,-0.0670391061452514,-0.061452513966480445,-0.0558659217877095,-0.061452513966480445,-0.0893854748603352,-0.0782122905027933,-0.0782122905027933,-0.0670391061452514,-0.061452513966480445,-0.03910614525139665,-0.0558659217877095,-0.05027932960893854,-0.0893854748603352,-0.0558659217877095,-0.10055865921787709,-0.0670391061452514,-0.07262569832402235,-0.0782122905027933,-0.0670391061452514,-0.0670391061452514,-0.0782122905027933,-0.09497206703910616,-0.09497206703910616,-0.07262569832402235,-0.0670391061452514,-0.0446927374301676,-0.0446927374301676,-0.07262569832402235,-0.08379888268156424,-0.0446927374301676,-0.05027932960893854,-0.0446927374301676,-0.08379888268156424,-0.10055865921787709,-0.07262569832402235,-0.061452513966480445,-0.08379888268156424,-0.0335195530726257,-0.0446927374301676,-0.03910614525139665,-0.0558659217877095,-0.07262569832402235,-0.08379888268156424,-0.08379888268156424,-0.08379888268156424,-0.07262569832402235,-0.0446927374301676,-0.03910614525139665,-0.03910614525139665,-0.08379888268156424,-0.0446927374301676,-0.0558659217877095,-0.0670391061452514,-0.0446927374301676,-0.05027932960893854,-0.05027932960893854,-0.03910614525139665,-0.061452513966480445,-0.0446927374301676,-0.061452513966480445,-0.0558659217877095,-0.0335195530726257,-0.03910614525139665,-0.0558659217877095,-0.0893854748603352,-0.0558659217877095,-0.03910614525139665,-0.0335195530726257,-0.03910614525139665,-0.0446927374301676,-0.0335195530726257,-0.061452513966480445,-0.03910614525139665,-0.05027932960893854,-0.0223463687150838,-0.0446927374301676,-0.0335195530726257,-0.05027932960893854,-0.05027932960893854,-0.0558659217877095,-0.0335195530726257,-0.0782122905027933,-0.0670391061452514,-0.0782122905027933,-0.061452513966480445,-0.03910614525139665,-0.0446927374301676,-0.0558659217877095,-0.03910614525139665,-0.0558659217877095,-0.0670391061452514,-0.061452513966480445,-0.05027932960893854,-0.0558659217877095,-0.0670391061452514,-0.0670391061452514,-0.0670391061452514,-0.08379888268156424,-0.05027932960893854,-0.0670391061452514,-0.07262569832402235,-0.0446927374301676,-0.0558659217877095,-0.0558659217877095,-0.0223463687150838,-0.02793296089385475,-0.0446927374301676,-0.05027932960893854,-0.03910614525139665,-0.05027932960893854,-0.02793296089385475,-0.0670391061452514,-0.0446927374301676,-0.0670391061452514,-0.05027932960893854,-0.0670391061452514,-0.0558659217877095,-0.03910614525139665,-0.061452513966480445,-0.061452513966480445,-0.0223463687150838,-0.0558659217877095,-0.0558659217877095,-0.0446927374301676,-0.02793296089385475,-0.0670391061452514,-0.0782122905027933,-0.0893854748603352,-0.09497206703910616,-0.03910614525139665,-0.0223463687150838,-0.0111731843575419,0.0111731843575419,0.0111731843575419,-0.0223463687150838,-0.0111731843575419,-0.0446927374301676,-0.03910614525139665,-0.05027932960893854,-0.02793296089385475,-0.0335195530726257,-0.0111731843575419,0.0,0.0,0.0,0.0,0.0,N
0.09497206703910616,-0.1340782122905028,-0.48044692737430167,-0.7318435754189945,-0.8044692737430167,-0.7541899441340782,-0.653631284916201,-0.4860335195530726,-0.3407821229050279,-0.21787709497206703,-0.16201117318435754,-0.10614525139664804,-0.10055865921787709,-0.10055865921787709,-0.07262569832402235,-0.0782122905027933,-0.0670391061452514,-0.0223463687150838,-0.0223463687150838,-0.0335195530726257,-0.02793296089385475,0.0,-0.0111731843575419,-0.0111731843575419,-0.01675977653631285,-0.01675977653631285,-0.02793296089385475,-0.0223463687150838,-0.02793296089385475,-0.02793296089385475,-0.0223463687150838,-0.0223463687150838,-0.01675977653631285,0.0,0.01675977653631285,0.0223463687150838,0.0335195530726257,0.0446927374301676,0.0558659217877095,0.03910614525139665,0.0335195530726257,0.03910614525139665,0.00558659217877095,0.03910614525139665,0.03910614525139665,0.0111731843575419,0.0335195530726257,0.0223463687150838,0.00558659217877095,0.0335195530726257,0.02793296089385475,0.02793296089385475,0.0446927374301676,0.01675977653631285,0.01675977653631285,0.02793296089385475,0.0335195530726257,0.01675977653631285,0.0,0.00558659217877095,0.0,0.00558659217877095,0.01675977653631285,0.01675977653631285,0.0111731843575419,0.0223463687150838,0.0223463687150838,0.00558659217877095,0.02793296089385475,0.0335195530726257,0.05027932960893854,0.0223463687150838,0.02793296089385475,0.05027932960893854,0.0558659217877095,0.01675977653631285,0.05027932960893854,0.02793296089385475,0.0335195530726257,0.05027932960893854,0.0223463687150838,0.0111731843575419,0.03910614525139665,0.0558659217877095,0.03910614525139665,0.0335195530726257,0.05027932960893854,0.0558659217877095,0.0558659217877095,0.05027932960893854,0.0558659217877095,0.01675977653631285,0.02793296089385475,0.0111731843575419,0.01675977653631285,0.0335195530726257,0.02793296089385475,0.0111731843575419,0.0111731843575419,0.00558659217877095,0.00558659217877095,0.00558659217877095,0.0,-0.0223463687150838,0.0335195530726257,0.0111731843575419,0.0335195530726257,0.02793296089385475,0.05027932960893854,0.01675977653631285,0.0,0.00558659217877095,0.0111731843575419,-0.0111731843575419,0.0111731843575419,0.00558659217877095,0.0223463687150838,0.00558659217877095,-0.00558659217877095,0.01675977653631285,0.00558659217877095,-0.00558659217877095,0.0,0.02793296089385475,0.0223463687150838,0.0111731843575419,0.01675977653631285,-0.01675977653631285,0.0,0.0,0.01675977653631285,0.0,0.0,0.0223463687150838,0.00558659217877095,0.00558659217877095,0.0111731843575419,0.0,0.00558659217877095,0.0111731843575419,0.0111731843575419,0.0,-0.00558659217877095,0.0,-0.00558659217877095,0.01675977653631285,0.0,-0.00558659217877095,0.0,0.00558659217877095,0.0,0.0223463687150838,0.00558659217877095,0.0111731843575419,0.01675977653631285,0.0,0.0,0.00558659217877095,-0.00558659217877095,-0.02793296089385475,-0.0223463687150838,-0.02793296089385475,0.0,-0.0446927374301676,-0.0111731843575419,0.0,0.0,0.0,-0.01675977653631285,-0.00558659217877095,0.0,0.0223463687150838,0.0,-0.0111731843575419,0.0111731843575419,0.0,-0.0111731843575419,0.0,0.0,-0.0223463687150838,0.00558659217877095,-0.0111731843575419,0.0,-0.0111731843575419,0.0,-0.00558659217877095,-0.03910614525139665,0.0,-0.0223463687150838,0.0,0.0,-0.01675977653631285,-0.0111731843575419,0.0,-0.0335195530726257,-0.05027932960893854,-0.061452513966480445,-0.0446927374301676,-0.03910614525139665,-0.03910614525139665,-0.0223463687150838,-0.01675977653631285,-0.0111731843575419,-0.02793296089385475,-0.01675977653631285,-0.01675977653631285,0.0,-0.01675977653631285,-0.0335195530726257,-0.02793296089385475,-0.02793296089385475,0.0,0.0111731843575419,0.03910614525139665,0.0558659217877095,0.061452513966480445,0.0446927374301676,0.0782122905027933,0.0670391061452514,0.0558659217877095,0.03910614525139665,0.03910614525139665,0.05027932960893854,0.02793296089385475,0.0,0.01675977653631285,0.0,-0.0111731843575419,0.01675977653631285,0.02793296089385475,0.0,0.00558659217877095,0.0,0.00558659217877095,0.00558659217877095,-0.0446927374301676,-0.03910614525139665,-0.0446927374301676,-0.07262569832402235,-0.0670391061452514,-0.061452513966480445,-0.061452513966480445,-0.0558659217877095,-0.0446927374301676,-0.0335195530726257,0.00558659217877095,0.02793296089385475,0.0893854748603352,0.16759776536312848,0.20111731843575417,0.19553072625698323,0.21787709497206703,0.17318435754189943,0.1564245810055866,-0.00558659217877095,-0.30726256983240224,-0.5865921787709497,-0.770949720670391,-0.7932960893854748,-0.7039106145251397,-0.6089385474860336,-0.4245810055865922,-0.2681564245810056,-0.1564245810055866,-0.0893854748603352,-0.0670391061452514,-0.061452513966480445,-0.0446927374301676,-0.05027932960893854,-0.05027932960893854,-0.03910614525139665,-0.0335195530726257,-0.02793296089385475,-0.02793296089385475,-0.00558659217877095,-0.01675977653631285,-0.01675977653631285,-0.00558659217877095,-0.0223463687150838,-0.03910614525139665,-0.01675977653631285,-0.01675977653631285,-0.0335195530726257,-0.02793296089385475,-0.01675977653631285,-0.0335195530726257,-0.0223463687150838,0.0,0.0111731843575419,-0.00558659217877095,-0.01675977653631285,0.0,0.0111731843575419,0.0,0.0,0.0,0.0,0.0,0.0,0.0,N
0.1564245810055866,-0.00558659217877095,-0.30726256983240224,-0.5865921787709497,-0.770949720670391,-0.7932960893854748,-0.7039106145251397,-0.6089385474860336,-0.4245810055865922,-0.2681564245810056,-0.1564245810055866,-0.0893854748603352,-0.0670391061452514,-0.061452513966480445,-0.0446927374301676,-0.05027932960893854,-0.05027932960893854,-0.03910614525139665,-0.0335195530726257,-0.02793296089385475,-0.02793296089385475,-0.00558659217877095,-0.01675977653631285,-0.01675977653631285,-0.00558659217877095,-0.0223463687150838,-0.03910614525139665,-0.01675977653631285,-0.01675977653631285,-0.0335195530726257,-0.02793296089385475,-0.01675977653631285,-0.0335195530726257,-0.0223463687150838,0.0,0.0111731843575419,-0.00558659217877095,-0.01675977653631285,0.0,0.0111731843575419,0.0,0.0,-0.00558659217877095,0.01675977653631285,0.02793296089385475,0.0111731843575419,0.0335195530726257,0.05027932960893854,0.02793296089385475,0.03910614525139665,0.02793296089385475,0.02793296089385475,0.061452513966480445,0.0,0.02793296089385475,0.0223463687150838,0.0223463687150838,0.0111731843575419,0.0335195530726257,0.02793296089385475,0.05027932960893854,0.0335195530726257,0.0335195530726257,0.0223463687150838,0.0111731843575419,0.0335195530726257,0.0335195530726257,0.00558659217877095,0.02793296089385475,0.03910614525139665,0.0335195530726257,0.0446927374301676,0.061452513966480445,0.05027932960893854,0.0558659217877095,0.0670391061452514,0.02793296089385475,0.02793296089385475,0.0446927374301676,0.061452513966480445,0.0446927374301676,0.0335195530726257,0.0223463687150838,0.01675977653631285,0.0223463687150838,0.0111731843575419,0.0223463687150838,0.02793296089385475,0.03910614525139665,0.0335195530726257,0.03910614525139665,0.01675977653631285,0.0335195530726257,0.03910614525139665,0.0335195530726257,0.01675977653631285,0.061452513966480445,0.07262569832402235,0.061452513966480445,0.0558659217877095,0.02793296089385475,0.0111731843575419,0.0223463687150838,0.061452513966480445,0.0558659217877095,0.05027932960893854,0.03910614525139665,0.05027932960893854,0.0223463687150838,0.0223463687150838,0.02793296089385475,0.0335195530726257,0.0446927374301676,0.03910614525139665,0.0670391061452514,0.02793296089385475,0.0223463687150838,0.01675977653631285,0.02793296089385475,0.0335195530726257,0.0111731843575419,0.0223463687150838,0.01675977653631285,0.0223463687150838,0.01675977653631285,0.01675977653631285,0.0,0.01675977653631285,0.0111731843575419,0.02793296089385475,0.0223463687150838,0.01675977653631285,0.01675977653631285,0.0335195530726257,0.0,0.0,0.0,0.01675977653631285,0.01675977653631285,0.0335195530726257,0.03910614525139665,0.0335195530726257,0.02793296089385475,0.02793296089385475,0.00558659217877095,0.0335195530726257,0.0111731843575419,0.0111731843575419,0.0,0.0223463687150838,0.0335195530726257,0.01675977653631285,0.02793296089385475,0.0223463687150838,0.00558659217877095,0.03910614525139665,0.00558659217877095,0.0,0.0,-0.00558659217877095,0.01675977653631285,0.00558659217877095,0.0223463687150838,0.0111731843575419,0.0,0.0,0.0,-0.01675977653631285,-0.0111731843575419,-0.0111731843575419,0.02793296089385475,0.0,-0.00558659217877095,0.00558659217877095,0.0,0.0,-0.0111731843575419,0.0,0.00558659217877095,0.0,0.0,0.00558659217877095,0.00558659217877095,0.0,0.01675977653631285,0.00558659217877095,0.0111731843575419,0.01675977653631285,0.0223463687150838,0.03910614525139665,0.02793296089385475,0.01675977653631285,0.0111731843575419,0.02793296089385475,0.01675977653631285,0.01675977653631285,0.0,0.0111731843575419,0.0,0.03910614525139665,0.01675977653631285,0.0335195530726257,0.00558659217877095,0.0,0.0335195530726257,0.08379888268156424,0.0558659217877095,0.061452513966480445,0.08379888268156424,0.10055865921787709,0.10614525139664804,0.09497206703910616,0.0893854748603352,0.0893854748603352,0.07262569832402235,0.0558659217877095,0.0558659217877095,0.0446927374301676,0.01675977653631285,0.0335195530726257,0.0446927374301676,0.0335195530726257,0.02793296089385475,0.0335195530726257,0.0446927374301676,0.0335195530726257,0.0335195530726257,0.0335195530726257,0.00558659217877095,-0.00558659217877095,-0.01675977653631285,-0.0223463687150838,-0.02793296089385475,-0.0335195530726257,-0.01675977653631285,-0.02793296089385475,-0.00558659217877095,0.01675977653631285,0.061452513966480445,0.11731843575418993,0.13966480446927373,0.20670391061452514,0.23463687150837986,0.2122905027932961,0.19553072625698323,0.1452513966480447,0.07262569832402235,-0.1340782122905028,-0.446927374301676,-0.7206703910614525,-0.8100558659217877,-0.7765363128491619,-0.6703910614525139,-0.4972067039106145,-0.3407821229050279,-0.223463687150838,-0.111731843575419,-0.09497206703910616,-0.07262569832402235,-0.061452513966480445,-0.0446927374301676,-0.0558659217877095,-0.0223463687150838,-0.0111731843575419,0.0,0.0,-0.01675977653631285,0.0,-0.0111731843575419,0.0111731843575419,0.0,0.0,0.0,0.01675977653631285,0.01675977653631285,0.0335195530726257,0.01675977653631285,0.0,0.01675977653631285,0.0223463687150838,0.02793296089385475,0.02793296089385475,0.0223463687150838,0.0223463687150838,0.0446927374301676,0.0223463687150838,0.03910614525139665,0.05027932960893854,0.061452513966480445,0.0335195530726257,0.03910614525139665,0.0558659217877095,0.0558659217877095,0.0670391061452514,0.0670391061452514,0.0,0.0,0.0,0.0,0.0,N
0.07262569832402235,-0.1340782122905028,-0.446927374301676,-0.7206703910614525,-0.8100558659217877,-0.7765363128491619,-0.6703910614525139,-0.4972067039106145,-0.3407821229050279,-0.223463687150838,-0.111731843575419,-0.09497206703910616,-0.07262569832402235,-0.061452513966480445,-0.0446927374301676,-0.0558659217877095,-0.0223463687150838,-0.0111731843575419,0.0,0.0,-0.01675977653631285,0.0,-0.0111731843575419,0.0111731843575419,0.0,0.0,0.0,0.01675977653631285,0.01675977653631285,0.0335195530726257,0.01675977653631285,0.0,0.01675977653631285,0.0223463687150838,0.02793296089385475,0.02793296089385475,0.0223463687150838,0.0223463687150838,0.0446927374301676,0.0223463687150838,0.03910614525139665,0.05027932960893854,0.061452513966480445,0.0335195530726257,0.03910614525139665,0.0558659217877095,0.0558659217877095,0.0670391061452514,0.0670391061452514,0.03910614525139665,0.0446927374301676,0.03910614525139665,0.0335195530726257,0.03910614525139665,0.05027932960893854,0.0446927374301676,0.061452513966480445,0.061452513966480445,0.0670391061452514,0.0558659217877095,0.07262569832402235,0.02793296089385475,0.01675977653631285,0.03910614525139665,0.05027932960893854,0.0446927374301676,0.0558659217877095,0.03910614525139665,0.03910614525139665,0.061452513966480445,0.0670391061452514,0.061452513966480445,0.061452513966480445,0.07262569832402235,0.08379888268156424,0.0558659217877095,0.02793296089385475,0.01675977653631285,0.03910614525139665,0.0335195530726257,0.061452513966480445,0.0223463687150838,0.01675977653631285,0.00558659217877095,0.00558659217877095,0.0223463687150838,0.01675977653631285,0.0111731843575419,0.0223463687150838,0.0111731843575419,0.02793296089385475,0.01675977653631285,0.0223463687150838,0.0446927374301676,0.0335195530726257,0.03910614525139665,0.0335195530726257,0.0111731843575419,-0.01675977653631285,-0.01675977653631285,-0.0223463687150838,0.0,0.0,-0.00558659217877095,0.0,-0.01675977653631285,-0.00558659217877095,0.0,0.0,0.01675977653631285,-0.00558659217877095,-0.01675977653631285,0.02793296089385475,0.0,0.00558659217877095,0.00558659217877095,0.0223463687150838,0.02793296089385475,0.0223463687150838,0.0,0.02793296089385475,0.05027932960893854,0.00558659217877095,0.0,0.0111731843575419,0.00558659217877095,0.00558659217877095,0.00558659217877095,0.00558659217877095,0.0111731843575419,-0.00558659217877095,0.0,-0.01675977653631285,-0.00558659217877095,0.0,0.01675977653631285,0.0111731843575419,-0.01675977653631285,-0.02793296089385475,-0.0335195530726257,-0.0223463687150838,-0.0111731843575419,-0.00558659217877095,0.0111731843575419,0.00558659217877095,-0.0223463687150838,-0.00558659217877095,-0.02793296089385475,-0.0111731843575419,0.0,-0.0111731843575419,-0.00558659217877095,-0.01675977653631285,-0.0446927374301676,-0.0335195530726257,-0.0335195530726257,0.0,0.0,0.0,0.0,0.0,0.0111731843575419,0.0,0.0111731843575419,-0.01675977653631285,0.01675977653631285,0.01675977653631285,0.0,0.0,0.0,-0.00558659217877095,-0.0111731843575419,-0.0446927374301676,-0.0223463687150838,-0.0223463687150838,-0.02793296089385475,-0.02793296089385475,-0.0446927374301676,-0.0446927374301676,-0.0335195530726257,-0.0335195530726257,-0.0558659217877095,-0.05027932960893854,-0.0335195530726257,-0.0223463687150838,-0.0335195530726257,-0.0782122905027933,-0.05027932960893854,-0.0558659217877095,-0.0558659217877095,-0.0558659217877095,-0.061452513966480445,-0.0446927374301676,-0.0670391061452514,-0.05027932960893854,-0.02793296089385475,-0.0558659217877095,-0.0335195530726257,-0.05027932960893854,-0.0446927374301676,-0.01675977653631285,-0.01675977653631285,-0.0335195530726257,-0.05027932960893854,-0.07262569832402235,-0.05027932960893854,-0.03910614525139665,-0.03910614525139665,-0.0335195530726257,-0.01675977653631285,0.0,0.01675977653631285,0.00558659217877095,0.0,0.03910614525139665,0.0111731843575419,0.0335195530726257,0.03910614525139665,0.0223463687150838,0.00558659217877095,0.0,-0.02793296089385475,-0.02793296089385475,-0.0446927374301676,-0.03910614525139665,-0.0335195530726257,-0.0223463687150838,-0.061452513966480445,-0.0558659217877095,-0.03910614525139665,-0.03910614525139665,-0.0335195530726257,-0.0335195530726257,-0.0558659217877095,-0.0558659217877095,-0.0670391061452514,-0.10055865921787709,-0.111731843575419,-0.0782122905027933,-0.0893854748603352,-0.0893854748603352,-0.0782122905027933,-0.03910614525139665,-0.0111731843575419,0.0670391061452514,0.12290502793296089,0.20111731843575417,0.25139664804469275,0.22905027932960892,0.24022346368715083,0.17318435754189943,0.0335195530726257,-0.27932960893854747,-0.6368715083798882,-0.7932960893854748,-0.8547486033519553,-0.7877094972067038,-0.6424581005586592,-0.49162011173184356,-0.33519553072625696,-0.20111731843575417,-0.13966480446927373,-0.1340782122905028,-0.11731843575418993,-0.08379888268156424,-0.0782122905027933,-0.09497206703910616,-0.0782122905027933,-0.0782122905027933,-0.0670391061452514,-0.061452513966480445,-0.0670391061452514,-0.07262569832402235,-0.08379888268156424,-0.0670391061452514,-0.0782122905027933,-0.0893854748603352,-0.0782122905027933,-0.0558659217877095,-0.05027932960893854,-0.061452513966480445,-0.07262569832402235,-0.0670391061452514,-0.0670391061452514,-0.0670391061452514,-0.0558659217877095,-0.0893854748603352,-0.05027932960893854,-0.03910614525139665,-0.0446927374301676,-0.0223463687150838,-0.02793296089385475,-0.02793296089385475,-0.00558659217877095,-0.0111731843575419,0.0,0.0,0.0,0.0,0.0,N
0.17318435754189943,0.0335195530726257,-0.27932960893854747,-0.6368715083798882,-0.7932960893854748,-0.8547486033519553,-0.7877094972067038,-0.6424581005586592,-0.49162011173184356,-0.33519553072625696,-0.20111731843575417,-0.13966480446927373,-0.1340782122905028,-0.11731843575418993,-0.08379888268156424,-0.0782122905027933,-0.09497206703910616,-0.0782122905027933,-0.0782122905027933,-0.0670391061452514,-0.061452513966480445,-0.0670391061452514,-0.07262569832402235,-0.08379888268156424,-0.0670391061452514,-0.0782122905027933,-0.0893854748603352,-0.0782122905027933,-0.0558659217877095,-0.05027932960893854,-0.061452513966480445,-0.07262569832402235,-0.0670391061452514,-0.0670391061452514,-0.0670391061452514,-0.0558659217877095,-0.0893854748603352,-0.05027932960893854,-0.03910614525139665,-0.0446927374301676,-0.0223463687150838,-0.02793296089385475,-0.02793296089385475,-0.00558659217877095,-0.0111731843575419,-0.01675977653631285,-0.01675977653631285,-0.0111731843575419,-0.0223463687150838,0.0,-0.01675977653631285,-0.0335195530726257,-0.0111731843575419,0.0,0.0,-0.00558659217877095,-0.00558659217877095,0.0223463687150838,0.00558659217877095,0.0,0.0,0.0,0.0,0.0,0.0,0.01675977653631285,0.0111731843575419,0.00558659217877095,-0.0223463687150838,-0.0111731843575419,-0.02793296089385475,-0.0335195530726257,-0.0223463687150838,0.0,0.00558659217877095,0.0111731843575419,0.00558659217877095,0.00558659217877095,0.0,0.0,-0.00558659217877095,-0.01675977653631285,-0.01675977653631285,-0.0223463687150838,0.0,-0.01675977653631285,-0.02793296089385475,-0.00558659217877095,0.0223463687150838,0.00558659217877095,0.0,0.0,-0.00558659217877095,0.0,-0.00558659217877095,-0.01675977653631285,-0.0111731843575419,0.0,0.0,0.00558659217877095,-0.00558659217877095,-0.01675977653631285,-0.0223463687150838,-0.0223463687150838,-0.01675977653631285,0.0,-0.0223463687150838,-0.0111731843575419,-0.0111731843575419,-0.03910614525139665,-0.03910614525139665,-0.0223463687150838,-0.0335195530726257,-0.0335195530726257,-0.0446927374301676,-0.0335195530726257,-0.05027932960893854,-0.0335195530726257,-0.0446927374301676,-0.08379888268156424,-0.03910614525139665,-0.03910614525139665,-0.02793296089385475,-0.0446927374301676,-0.0446927374301676,-0.0558659217877095,-0.061452513966480445,-0.061452513966480445,-0.0446927374301676,-0.0111731843575419,-0.0446927374301676,-0.03910614525139665,-0.0335195530726257,-0.0335195530726257,-0.061452513966480445,-0.0893854748603352,-0.0446927374301676,-0.05027932960893854,-0.0446927374301676,-0.0558659217877095,-0.02793296089385475,-0.03910614525139665,-0.03910614525139665,-0.03910614525139665,-0.03910614525139665,-0.0446927374301676,-0.03910614525139665,-0.0446927374301676,-0.0335195530726257,-0.0446927374301676,-0.02793296089385475,-0.0446927374301676,-0.01675977653631285,-0.0446927374301676,-0.03910614525139665,-0.08379888268156424,-0.08379888268156424,-0.0446927374301676,-0.03910614525139665,-0.03910614525139665,-0.0446927374301676,-0.0670391061452514,-0.061452513966480445,-0.02793296089385475,-0.07262569832402235,-0.0446927374301676,-0.08379888268156424,-0.0782122905027933,-0.08379888268156424,-0.0782122905027933,-0.0446927374301676,-0.05027932960893854,-0.0670391061452514,-0.0558659217877095,-0.0558659217877095,-0.05027932960893854,-0.05027932960893854,-0.0558659217877095,-0.05027932960893854,-0.07262569832402235,-0.0670391061452514,-0.0893854748603352,-0.0558659217877095,-0.07262569832402235,-0.0670391061452514,-0.0670391061452514,-0.07262569832402235,-0.061452513966480445,-0.0670391061452514,-0.0670391061452514,-0.061452513966480445,-0.0558659217877095,-0.0782122905027933,-0.0782122905027933,-0.061452513966480445,-0.0670391061452514,-0.0558659217877095,0.0,0.0111731843575419,0.00558659217877095,0.02793296089385475,0.00558659217877095,0.0,0.0111731843575419,0.01675977653631285,0.02793296089385475,-0.0111731843575419,-0.00558659217877095,-0.0223463687150838,-0.02793296089385475,-0.03910614525139665,-0.02793296089385475,-0.0335195530726257,-0.01675977653631285,-0.061452513966480445,-0.0558659217877095,-0.07262569832402235,-0.07262569832402235,-0.07262569832402235,-0.09497206703910616,-0.10055865921787709,-0.111731843575419,-0.10614525139664804,-0.0782122905027933,-0.0893854748603352,-0.111731843575419,-0.0782122905027933,-0.0558659217877095,-0.0335195530726257,-0.02793296089385475,0.02793296089385475,0.0558659217877095,0.111731843575419,0.1340782122905028,0.10614525139664804,0.111731843575419,0.0558659217877095,-0.111731843575419,-0.41899441340782123,-0.6983240223463687,-0.8324022346368715,-0.8156424581005586,-0.7262569832402235,-0.6312849162011173,-0.43575418994413406,-0.27932960893854747,-0.20670391061452514,-0.17318435754189943,-0.17318435754189943,-0.17318435754189943,-0.19553072625698323,-0.1787709497206704,-0.1564245810055866,-0.15083798882681565,-0.1452513966480447,-0.11731843575418993,-0.061452513966480445,-0.0670391061452514,-0.0335195530726257,0.0,0.0223463687150838,0.01675977653631285,0.00558659217877095,0.0,-0.0111731843575419,-0.0111731843575419,-0.03910614525139665,-0.0446927374301676,-0.0446927374301676,-0.02793296089385475,-0.0446927374301676,-0.03910614525139665,-0.03910614525139665,-0.03910614525139665,-0.0111731843575419,0.0111731843575419,0.00558659217877095,0.01675977653631285,0.02793296089385475,0.01675977653631285,0.0223463687150838,0.01675977653631285,0.0223463687150838,0.0223463687150838,0.02793296089385475,0.061452513966480445,0.0335195530726257,0.03910614525139665,0.0335195530726257,0.0446927374301676,0.061452513966480445,0.05027932960893854,0.0558659217877095,0.0558659217877095,0.02793296089385475,0.0,0.0,0.0,0.0,0.0,N
0.111731843575419,0.0558659217877095,-0.111731843575419,-0.41899441340782123,-0.6983240223463687,-0.8324022346368715,-0.8156424581005586,-0.7262569832402235,-0.6312849162011173,-0.43575418994413406,-0.27932960893854747,-0.20670391061452514,-0.17318435754189943,-0.17318435754189943,-0.17318435754189943,-0.19553072625698323,-0.1787709497206704,-0.1564245810055866,-0.15083798882681565,-0.1452513966480447,-0.11731843575418993,-0.061452513966480445,-0.0670391061452514,-0.0335195530726257,0.0,0.0223463687150838,0.01675977653631285,0.00558659217877095,0.0,-0.0111731843575419,-0.0111731843575419,-0.03910614525139665,-0.0446927374301676,-0.0446927374301676,-0.02793296089385475,-0.0446927374301676,-0.03910614525139665,-0.03910614525139665,-0.03910614525139665,-0.0111731843575419,0.0111731843575419,0.00558659217877095,0.01675977653631285,0.02793296089385475,0.01675977653631285,0.0223463687150838,0.01675977653631285,0.0223463687150838,0.0223463687150838,0.02793296089385475,0.061452513966480445,0.0335195530726257,0.03910614525139665,0.0335195530726257,0.0446927374301676,0.061452513966480445,0.05027932960893854,0.0558659217877095,0.0558659217877095,0.02793296089385475,0.0446927374301676,0.061452513966480445,0.02793296089385475,0.03910614525139665,0.0223463687150838,0.02793296089385475,0.0558659217877095,0.07262569832402235,0.0558659217877095,0.0670391061452514,0.08379888268156424,0.09497206703910616,0.09497206703910616,0.07262569832402235,0.0893854748603352,0.09497206703910616,0.10055865921787709,0.10055865921787709,0.111731843575419,0.10055865921787709,0.0893854748603352,0.0782122905027933,0.07262569832402235,0.061452513966480445,0.03910614525139665,0.05027932960893854,0.0670391061452514,0.0335195530726257,0.05027932960893854,0.0558659217877095,0.01675977653631285,0.0223463687150838,0.0111731843575419,0.01675977653631285,0.01675977653631285,0.0335195530726257,0.03910614525139665,0.03910614525139665,0.05027932960893854,0.01675977653631285,0.0335195530726257,0.05027932960893854,0.05027932960893854,0.0446927374301676,0.02793296089385475,0.0670391061452514,0.08379888268156424,0.05027932960893854,0.03910614525139665,0.0558659217877095,0.061452513966480445,0.05027932960893854,0.0670391061452514,0.061452513966480445,0.07262569832402235,0.0670391061452514,0.09497206703910616,0.0670391061452514,0.0558659217877095,0.07262569832402235,0.0335195530726257,0.02793296089385475,0.02793296089385475,0.02793296089385475,0.01675977653631285,0.0111731843575419,-0.01675977653631285,0.00558659217877095,0.0111731843575419,0.0,0.0111731843575419,-0.0111731843575419,0.01675977653631285,0.0,-0.00558659217877095,0.0,-0.01675977653631285,0.0,0.0,-0.02793296089385475,-0.0446927374301676,-0.0111731843575419,-0.0223463687150838,-0.0223463687150838,-0.02793296089385475,-0.0111731843575419,-0.00558659217877095,-0.0223463687150838,-0.0111731843575419,-0.0111731843575419,0.0,-0.00558659217877095,-0.0111731843575419,-0.0111731843575419,0.0,0.0,0.0,0.0,0.0111731843575419,-0.00558659217877095,0.0,0.00558659217877095,-0.0111731843575419,-0.0223463687150838,-0.0111731843575419,-0.0335195530726257,-0.0223463687150838,-0.0111731843575419,0.01675977653631285,-0.0111731843575419,0.0,-0.0223463687150838,-0.01675977653631285,0.0111731843575419,0.00558659217877095,-0.01675977653631285,-0.01675977653631285,-0.0223463687150838,-0.01675977653631285,0.0,-0.0111731843575419,-0.00558659217877095,0.0111731843575419,0.00558659217877095,0.01675977653631285,0.0446927374301676,0.07262569832402235,0.03910614525139665,0.02793296089385475,0.0223463687150838,0.01675977653631285,0.00558659217877095,0.0,0.00558659217877095,-0.00558659217877095,0.00558659217877095,-0.01675977653631285,-0.00558659217877095,-0.00558659217877095,-0.02793296089385475,-0.0223463687150838,0.0,0.01675977653631285,0.00558659217877095,0.0,0.00558659217877095,0.0111731843575419,0.01675977653631285,0.061452513966480445,0.08379888268156424,0.0782122905027933,0.10614525139664804,0.0893854748603352,0.08379888268156424,0.09497206703910616,0.10055865921787709,0.10614525139664804,0.0558659217877095,0.0335195530726257,0.02793296089385475,0.0223463687150838,0.02793296089385475,0.03910614525139665,0.0223463687150838,0.03910614525139665,0.01675977653631285,0.0446927374301676,0.0223463687150838,0.0446927374301676,0.0223463687150838,-0.00558659217877095,0.0,-0.05027932960893854,-0.0558659217877095,-0.0558659217877095,-0.0335195530726257,-0.0223463687150838,0.01675977653631285,0.0223463687150838,0.02793296089385475,0.09497206703910616,0.111731843575419,0.16759776536312848,0.23463687150837986,0.24581005586592178,0.22905027932960892,0.18435754189944134,0.13966480446927373,-0.01675977653631285,-0.2681564245810056,-0.5977653631284916,-0.7430167597765364,-0.7932960893854748,-0.7262569832402235,-0.5865921787709497,-0.45251396648044695,-0.26256983240223464,-0.15083798882681565,-0.0670391061452514,-0.0223463687150838,-0.0782122905027933,-0.0893854748603352,-0.0893854748603352,-0.07262569832402235,-0.05027932960893854,-0.0782122905027933,-0.02793296089385475,-0.0223463687150838,-0.0111731843575419,-0.01675977653631285,-0.0111731843575419,-0.0446927374301676,-0.0223463687150838,0.0,0.0,0.0,-0.0111731843575419,-0.00558659217877095,-0.0111731843575419,-0.00558659217877095,-0.00558659217877095,0.0,0.0,0.00558659217877095,-0.01675977653631285,0.0,0.0111731843575419,0.0,0.00558659217877095,0.0223463687150838,0.07262569832402235,0.061452513966480445,0.061452513966480445,0.03910614525139665,0.05027932960893854,0.0,0.0,0.0,0.0,0.0,N
0.18435754189944134,0.13966480446927373,-0.01675977653631285,-0.2681564245810056,-0.5977653631284916,-0.7430167597765364,-0.7932960893854748,-0.7262569832402235,-0.5865921787709497,-0.45251396648044695,-0.26256983240223464,-0.15083798882681565,-0.0670391061452514,-0.0223463687150838,-0.0782122905027933,-0.0893854748603352,-0.0893854748603352,-0.07262569832402235,-0.05027932960893854,-0.0782122905027933,-0.02793296089385475,-0.0223463687150838,-0.0111731843575419,-0.01675977653631285,-0.0111731843575419,-0.0446927374301676,-0.0223463687150838,0.0,0.0,0.0,-0.0111731843575419,-0.00558659217877095,-0.0111731843575419,-0.00558659217877095,-0.00558659217877095,0.0,0.0,0.00558659217877095,-0.01675977653631285,0.0,0.0111731843575419,0.0,0.00558659217877095,0.0223463687150838,0.07262569832402235,0.061452513966480445,0.061452513966480445,0.03910614525139665,0.05027932960893854,0.0558659217877095,0.02793296089385475,0.05027932960893854,0.0558659217877095,0.061452513966480445,0.0558659217877095,0.05027932960893854,0.05027932960893854,0.05027932960893854,0.0782122905027933,0.0558659217877095,0.05027932960893854,0.05027932960893854,0.01675977653631285,0.05027932960893854,0.0558659217877095,0.0670391061452514,0.05027932960893854,0.0335195530726257,0.0558659217877095,0.0558659217877095,0.03910614525139665,0.08379888268156424,0.10055865921787709,0.09497206703910616,0.061452513966480445,0.0893854748603352,0.09497206703910616,0.0782122905027933,0.08379888268156424,0.08379888268156424,0.10055865921787709,0.08379888268156424,0.111731843575419,0.0893854748603352,0.08379888268156424,0.0893854748603352,0.09497206703910616,0.10614525139664804,0.10614525139664804,0.0782122905027933,0.0893854748603352,0.061452513966480445,0.061452513966480445,0.0782122905027933,0.0782122905027933,0.0670391061452514,0.03910614525139665,0.07262569832402235,0.0782122905027933,0.07262569832402235,0.0893854748603352,0.05027932960893854,0.0446927374301676,0.05027932960893854,0.0558659217877095,0.0670391061452514,0.061452513966480445,0.03910614525139665,0.03910614525139665,0.0335195530726257,0.03910614525139665,0.0446927374301676,0.0223463687150838,0.03910614525139665,0.0446927374301676,0.0111731843575419,0.0335195530726257,0.01675977653631285,0.0111731843575419,0.02793296089385475,0.01675977653631285,0.0223463687150838,0.0223463687150838,0.0223463687150838,0.00558659217877095,0.0111731843575419,0.0,0.02793296089385475,0.00558659217877095,0.0111731843575419,0.02793296089385475,0.01675977653631285,0.02793296089385475,0.01675977653631285,0.0,0.0335195530726257,0.0111731843575419,0.0,0.00558659217877095,-0.0111731843575419,0.01675977653631285,0.03910614525139665,-0.00558659217877095,0.0111731843575419,0.0,0.00558659217877095,0.05027932960893854,0.02793296089385475,0.0,0.0335195530726257,0.0111731843575419,0.0446927374301676,0.03910614525139665,0.03910614525139665,0.05027932960893854,0.0558659217877095,0.07262569832402235,0.07262569832402235,0.0558659217877095,0.03910614525139665,0.0558659217877095,0.061452513966480445,0.03910614525139665,0.0558659217877095,0.0335195530726257,0.0446927374301676,0.0335195530726257,0.0335195530726257,0.0335195530726257,0.01675977653631285,0.01675977653631285,0.0111731843575419,0.0335195530726257,0.0335195530726257,0.02793296089385475,0.0,0.01675977653631285,0.0558659217877095,0.03910614525139665,0.0335195530726257,0.0335195530726257,0.03910614525139665,0.05027932960893854,0.0558659217877095,0.061452513966480445,0.061452513966480445,0.0670391061452514,0.0558659217877095,0.05027932960893854,0.0558659217877095,0.05027932960893854,0.061452513966480445,0.08379888268156424,0.0558659217877095,0.0670391061452514,0.0670391061452514,0.05027932960893854,0.05027932960893854,0.0782122905027933,0.0670391061452514,0.0670391061452514,0.061452513966480445,0.0558659217877095,0.0670391061452514,0.0335195530726257,0.061452513966480445,0.07262569832402235,0.0893854748603352,0.08379888268156424,0.12849162011173185,0.111731843575419,0.11731843575418993,0.12290502793296089,0.10614525139664804,0.09497206703910616,0.10055865921787709,0.09497206703910616,0.08379888268156424,0.0670391061452514,0.0782122905027933,0.05027932960893854,0.0446927374301676,0.0558659217877095,0.061452513966480445,0.03910614525139665,0.0446927374301676,0.0335195530726257,0.061452513966480445,0.0446927374301676,0.0446927374301676,0.03910614525139665,0.0335195530726257,-0.00558659217877095,-0.0111731843575419,0.02793296089385475,0.0,-0.0111731843575419,0.0,0.01675977653631285,0.0446927374301676,0.0782122905027933,0.16201117318435754,0.20111731843575417,0.2569832402234637,0.25139664804469275,0.2122905027932961,0.16201117318435754,0.111731843575419,-0.0335195530726257,-0.33519553072625696,-0.6256983240223464,-0.7765363128491619,-0.770949720670391,-0.7094972067039106,-0.547486033519553,-0.41899441340782123,-0.24581005586592178,-0.1452513966480447,-0.061452513966480445,-0.03910614525139665,-0.03910614525139665,-0.0335195530726257,-0.0446927374301676,-0.0446927374301676,-0.0223463687150838,-0.03910614525139665,-0.0223463687150838,-0.0223463687150838,-0.0223463687150838,0.0,0.01675977653631285,0.0335195530726257,0.01675977653631285,0.0335195530726257,0.03910614525139665,0.0446927374301676,0.0446927374301676,0.0335195530726257,0.0335195530726257,0.0335195530726257,0.03910614525139665,0.03910614525139665,0.0223463687150838,0.0111731843575419,0.0,0.0,0.01675977653631285,0.0223463687150838,0.0335195530726257,0.03910614525139665,0.0446927374301676,0.03910614525139665,0.0223463687150838,0.0223463687150838,0.0111731843575419,0.0,0.0,0.0,0.0,0.0,N
0.16201117318435754,0.111731843575419,-0.0335195530726257,-0.33519553072625696,-0.6256983240223464,-0.7765363128491619,-0.770949720670391,-0.7094972067039106,-0.547486033519553,-0.41899441340782123,-0.24581005586592178,-0.1452513966480447,-0.061452513966480445,-0.03910614525139665,-0.03910614525139665,-0.0335195530726257,-0.0446927374301676,-0.0446927374301676,-0.0223463687150838,-0.03910614525139665,-0.0223463687150838,-0.0223463687150838,-0.0223463687150838,0.0,0.01675977653631285,0.0335195530726257,0.01675977653631285,0.0335195530726257,0.03910614525139665,0.0446927374301676,0.0446927374301676,0.0335195530726257,0.0335195530726257,0.0335195530726257,0.03910614525139665,0.03910614525139665,0.0223463687150838,0.0111731843575419,0.0,0.0,0.01675977653631285,0.0223463687150838,0.0335195530726257,0.03910614525139665,0.0446927374301676,0.03910614525139665,0.0223463687150838,0.0223463687150838,0.0111731843575419,0.01675977653631285,0.0223463687150838,0.05027932960893854,0.0335195530726257,0.01675977653631285,0.0335195530726257,0.0,-0.02793296089385475,0.03910614525139665,0.0446927374301676,0.0335195530726257,0.0111731843575419,0.0223463687150838,0.0111731843575419,0.01675977653631285,0.02793296089385475,0.0223463687150838,0.0446927374301676,0.0558659217877095,0.061452513966480445,0.03910614525139665,0.03910614525139665,0.0558659217877095,0.0446927374301676,0.061452513966480445,0.07262569832402235,0.061452513966480445,0.0782122905027933,0.10055865921787709,0.0782122905027933,0.09497206703910616,0.08379888268156424,0.0893854748603352,0.0782122905027933,0.0558659217877095,0.07262569832402235,0.061452513966480445,0.0782122905027933,0.08379888268156424,0.07262569832402235,0.07262569832402235,0.0670391061452514,0.061452513966480445,0.061452513966480445,0.0782122905027933,0.0893854748603352,0.07262569832402235,0.05027932960893854,0.0670391061452514,0.08379888268156424,0.0446927374301676,0.0670391061452514,0.0670391061452514,0.0782122905027933,0.0670391061452514,0.0782122905027933,0.0670391061452514,0.05027932960893854,0.0446927374301676,0.05027932960893854,0.061452513966480445,0.05027932960893854,0.0446927374301676,0.03910614525139665,0.0223463687150838,0.0558659217877095,0.0446927374301676,0.0782122905027933,0.07262569832402235,0.0446927374301676,0.0558659217877095,0.0335195530726257,0.0558659217877095,0.0558659217877095,0.0670391061452514,0.03910614525139665,0.0670391061452514,0.0335195530726257,0.0335195530726257,0.01675977653631285,0.0446927374301676,0.0223463687150838,0.0,0.02793296089385475,0.0111731843575419,0.0223463687150838,0.0111731843575419,0.0,-0.01675977653631285,-0.0223463687150838,-0.01675977653631285,-0.0223463687150838,0.0,0.00558659217877095,-0.0223463687150838,-0.01675977653631285,-0.0223463687150838,-0.0111731843575419,-0.0111731843575419,-0.0111731843575419,-0.0223463687150838,-0.00558659217877095,-0.00558659217877095,-0.00558659217877095,0.0111731843575419,0.00558659217877095,0.00558659217877095,-0.0111731843575419,0.0223463687150838,0.01675977653631285,0.0111731843575419,0.0111731843575419,0.0111731843575419,0.0446927374301676,0.0223463687150838,0.05027932960893854,0.0446927374301676,0.0335195530726257,0.0335195530726257,0.01675977653631285,0.0,-0.00558659217877095,0.0111731843575419,0.0335195530726257,0.0111731843575419,0.0111731843575419,-0.02793296089385475,0.01675977653631285,0.01675977653631285,0.01675977653631285,0.00558659217877095,0.0111731843575419,-0.00558659217877095,0.0,0.01675977653631285,0.01675977653631285,0.02793296089385475,0.0223463687150838,0.0223463687150838,0.02793296089385475,0.02793296089385475,0.00558659217877095,0.0,-0.0111731843575419,-0.00558659217877095,0.061452513966480445,0.0335195530726257,0.0558659217877095,0.03910614525139665,0.0335195530726257,0.0335195530726257,0.0223463687150838,0.01675977653631285,0.01675977653631285,0.01675977653631285,-0.00558659217877095,0.0111731843575419,0.0335195530726257,0.0335195530726257,0.02793296089385475,0.061452513966480445,0.08379888268156424,0.09497206703910616,0.111731843575419,0.09497206703910616,0.09497206703910616,0.10614525139664804,0.11731843575418993,0.111731843575419,0.10055865921787709,0.10614525139664804,0.111731843575419,0.0782122905027933,0.07262569832402235,0.0893854748603352,0.08379888268156424,0.0670391061452514,0.061452513966480445,0.0446927374301676,0.061452513966480445,0.0446927374301676,0.0446927374301676,0.03910614525139665,0.00558659217877095,0.0223463687150838,-0.0223463687150838,-0.02793296089385475,0.00558659217877095,-0.0111731843575419,0.0,0.0111731843575419,0.0446927374301676,0.061452513966480445,0.0893854748603352,0.15083798882681565,0.17318435754189943,0.24581005586592178,0.2849162011173184,0.25139664804469275,0.2569832402234637,0.1899441340782123,0.03910614525139665,-0.223463687150838,-0.5698324022346368,-0.7374301675977654,-0.7541899441340782,-0.7150837988826816,-0.5698324022346368,-0.4134078212290503,-0.22905027932960892,-0.111731843575419,-0.05027932960893854,-0.0111731843575419,0.0223463687150838,0.0223463687150838,0.0111731843575419,0.0335195530726257,0.0223463687150838,0.0111731843575419,0.0446927374301676,0.0223463687150838,0.0223463687150838,0.0223463687150838,0.03910614525139665,0.05027932960893854,0.0446927374301676,0.05027932960893854,0.0558659217877095,0.03910614525139665,0.0446927374301676,0.0446927374301676,0.05027932960893854,0.0558659217877095,0.03910614525139665,0.03910614525139665,0.00558659217877095,0.03910614525139665,0.05027932960893854,0.0893854748603352,0.0558659217877095,0.07262569832402235,0.0782122905027933,0.0670391061452514,0.0782122905027933,0.09497206703910616,0.0670391061452514,0.0,0.0,0.0,0.0,0.0,N
0.2569832402234637,0.1899441340782123,0.03910614525139665,-0.223463687150838,-0.5698324022346368,-0.7374301675977654,-0.7541899441340782,-0.7150837988826816,-0.5698324022346368,-0.4134078212290503,-0.22905027932960892,-0.111731843575419,-0.05027932960893854,-0.0111731843575419,0.0223463687150838,0.0223463687150838,0.0111731843575419,0.0335195530726257,0.0223463687150838,0.0111731843575419,0.0446927374301676,0.0223463687150838,0.0223463687150838,0.0223463687150838,0.03910614525139665,0.05027932960893854,0.0446927374301676,0.05027932960893854,0.0558659217877095,0.03910614525139665,0.0446927374301676,0.0446927374301676,0.05027932960893854,0.0558659217877095,0.03910614525139665,0.03910614525139665,0.00558659217877095,0.03910614525139665,0.05027932960893854,0.0893854748603352,0.0558659217877095,0.07262569832402235,0.0782122905027933,0.0670391061452514,0.0782122905027933,0.09497206703910616,0.0670391061452514,0.08379888268156424,0.0670391061452514,0.111731843575419,0.09497206703910616,0.0893854748603352,0.0670391061452514,0.0670391061452514,0.07262569832402235,0.08379888268156424,0.0782122905027933,0.0782122905027933,0.0670391061452514,0.08379888268156424,0.0558659217877095,0.061452513966480445,0.05027932960893854,0.07262569832402235,0.0670391061452514,0.0782122905027933,0.0670391061452514,0.061452513966480445,0.061452513966480445,0.0893854748603352,0.0670391061452514,0.0782122905027933,0.0782122905027933,0.05027932960893854,0.0782122905027933,0.09497206703910616,0.07262569832402235,0.05027932960893854,0.05027932960893854,0.03910614525139665,0.0446927374301676,0.0558659217877095,0.05027932960893854,0.061452513966480445,0.061452513966480445,0.02793296089385475,0.05027932960893854,0.05027932960893854,0.03910614525139665,0.03910614525139665,0.02793296089385475,0.02793296089385475,0.0223463687150838,0.0446927374301676,0.0446927374301676,0.0446927374301676,0.03910614525139665,0.02793296089385475,0.01675977653631285,0.0223463687150838,0.02793296089385475,0.0335195530726257,0.0223463687150838,0.0223463687150838,0.0,0.01675977653631285,0.0335195530726257,0.0223463687150838,0.0223463687150838,0.00558659217877095,0.0111731843575419,0.0223463687150838,0.02793296089385475,0.0111731843575419,0.02793296089385475,0.0223463687150838,0.0223463687150838,0.0111731843575419,0.0335195530726257,0.0223463687150838,-0.0111731843575419,0.01675977653631285,0.0223463687150838,0.01675977653631285,0.00558659217877095,0.00558659217877095,0.0223463687150838,0.0111731843575419,0.01675977653631285,0.0335195530726257,0.0335195530726257,0.00558659217877095,0.02793296089385475,0.00558659217877095,0.02793296089385475,0.02793296089385475,0.0223463687150838,0.0223463687150838,0.00558659217877095,-0.01675977653631285,-0.00558659217877095,0.01675977653631285,0.0,0.0111731843575419,0.00558659217877095,0.01675977653631285,0.01675977653631285,0.0335195530726257,0.0335195530726257,-0.00558659217877095,0.0223463687150838,0.01675977653631285,0.0223463687150838,0.01675977653631285,0.0,0.0,0.0,0.00558659217877095,0.01675977653631285,0.0,-0.0223463687150838,0.0223463687150838,0.0223463687150838,0.0,0.00558659217877095,0.00558659217877095,0.02793296089385475,0.0,0.0,0.0335195530726257,0.0335195530726257,0.0223463687150838,0.01675977653631285,0.0223463687150838,0.0111731843575419,0.02793296089385475,0.0223463687150838,0.0223463687150838,0.0223463687150838,0.0111731843575419,0.0223463687150838,0.05027932960893854,0.0446927374301676,0.0335195530726257,0.061452513966480445,0.0558659217877095,0.0223463687150838,0.0335195530726257,0.0335195530726257,0.061452513966480445,0.03910614525139665,0.0558659217877095,0.05027932960893854,0.0670391061452514,0.0446927374301676,0.0670391061452514,0.03910614525139665,0.0558659217877095,0.08379888268156424,0.09497206703910616,0.10614525139664804,0.10055865921787709,0.10055865921787709,0.111731843575419,0.111731843575419,0.12290502793296089,0.10614525139664804,0.12290502793296089,0.111731843575419,0.10614525139664804,0.10614525139664804,0.11731843575418993,0.09497206703910616,0.0893854748603352,0.10614525139664804,0.07262569832402235,0.061452513966480445,0.09497206703910616,0.0670391061452514,0.07262569832402235,0.061452513966480445,0.061452513966480445,0.05027932960893854,0.02793296089385475,0.01675977653631285,0.03910614525139665,0.01675977653631285,0.00558659217877095,0.02793296089385475,0.02793296089385475,0.03910614525139665,0.0670391061452514,0.10614525139664804,0.1787709497206704,0.23463687150837986,0.2737430167597765,0.3016759776536313,0.29608938547486036,0.29608938547486036,0.1899441340782123,0.0111731843575419,-0.33519553072625696,-0.6312849162011173,-0.7486033519553073,-0.7039106145251397,-0.6201117318435755,-0.45810055865921784,-0.27932960893854747,-0.16759776536312848,-0.0558659217877095,0.0111731843575419,0.01675977653631285,0.02793296089385475,0.00558659217877095,0.03910614525139665,0.0223463687150838,0.03910614525139665,0.01675977653631285,0.0223463687150838,0.0223463687150838,0.03910614525139665,0.05027932960893854,0.07262569832402235,0.0670391061452514,0.061452513966480445,0.08379888268156424,0.10614525139664804,0.08379888268156424,0.061452513966480445,0.0670391061452514,0.08379888268156424,0.08379888268156424,0.07262569832402235,0.08379888268156424,0.0782122905027933,0.0782122905027933,0.0893854748603352,0.10614525139664804,0.12290502793296089,0.09497206703910616,0.11731843575418993,0.12849162011173185,0.12849162011173185,0.10614525139664804,0.10614525139664804,0.11731843575418993,0.111731843575419,0.12849162011173185,0.111731843575419,0.10614525139664804,0.10614525139664804,0.09497206703910616,0.08379888268156424,0.0670391061452514,0.09497206703910616,0.0,0.0,0.0,0.0,0.0,N
0.29608938547486036,0.1899441340782123,0.0111731843575419,-0.33519553072625696,-0.6312849162011173,-0.7486033519553073,-0.7039106145251397,-0.6201117318435755,-0.45810055865921784,-0.27932960893854747,-0.16759776536312848,-0.0558659217877095,0.0111731843575419,0.01675977653631285,0.02793296089385475,0.00558659217877095,0.03910614525139665,0.0223463687150838,0.03910614525139665,0.01675977653631285,0.0223463687150838,0.0223463687150838,0.03910614525139665,0.05027932960893854,0.07262569832402235,0.0670391061452514,0.061452513966480445,0.08379888268156424,0.10614525139664804,0.08379888268156424,0.061452513966480445,0.0670391061452514,0.08379888268156424,0.08379888268156424,0.07262569832402235,0.08379888268156424,0.0782122905027933,0.0782122905027933,0.0893854748603352,0.10614525139664804,0.12290502793296089,0.09497206703910616,0.11731843575418993,0.12849162011173185,0.12849162011173185,0.10614525139664804,0.10614525139664804,0.11731843575418993,0.111731843575419,0.12849162011173185,0.111731843575419,0.10614525139664804,0.10614525139664804,0.09497206703910616,0.08379888268156424,0.0670391061452514,0.09497206703910616,0.10055865921787709,0.10614525139664804,0.08379888268156424,0.07262569832402235,0.111731843575419,0.07262569832402235,0.09497206703910616,0.08379888268156424,0.061452513966480445,0.0782122905027933,0.0782122905027933,0.0558659217877095,0.08379888268156424,0.0670391061452514,0.0670391061452514,0.10055865921787709,0.09497206703910616,0.10614525139664804,0.0893854748603352,0.08379888268156424,0.10055865921787709,0.09497206703910616,0.09497206703910616,0.0893854748603352,0.0782122905027933,0.08379888268156424,0.09497206703910616,0.0558659217877095,0.07262569832402235,0.03910614525139665,0.0335195530726257,0.02793296089385475,0.0446927374301676,0.061452513966480445,0.061452513966480445,0.0670391061452514,0.0446927374301676,0.03910614525139665,0.02793296089385475,0.02793296089385475,0.0335195530726257,0.0446927374301676,0.0223463687150838,0.0782122905027933,0.05027932960893854,0.0446927374301676,0.0446927374301676,0.0446927374301676,0.0446927374301676,0.0558659217877095,0.0670391061452514,0.0558659217877095,0.03910614525139665,0.0558659217877095,0.0670391061452514,0.0446927374301676,0.0670391061452514,0.0782122905027933,0.07262569832402235,0.061452513966480445,0.061452513966480445,0.0558659217877095,0.061452513966480445,0.0558659217877095,0.061452513966480445,0.07262569832402235,0.0558659217877095,0.061452513966480445,0.03910614525139665,0.02793296089385475,0.0558659217877095,0.061452513966480445,0.0446927374301676,0.03910614525139665,0.0446927374301676,0.05027932960893854,0.0446927374301676,0.0558659217877095,0.061452513966480445,0.0111731843575419,0.02793296089385475,0.0335195530726257,0.01675977653631285,0.02793296089385475,0.0335195530726257,0.03910614525139665,0.0111731843575419,0.0223463687150838,-0.0111731843575419,-0.01675977653631285,0.01675977653631285,0.00558659217877095,0.00558659217877095,0.0111731843575419,0.0446927374301676,0.02793296089385475,0.01675977653631285,0.0111731843575419,0.02793296089385475,0.0111731843575419,0.03910614525139665,0.03910614525139665,0.02793296089385475,0.0223463687150838,0.01675977653631285,0.0335195530726257,0.03910614525139665,0.0223463687150838,0.03910614525139665,0.0111731843575419,0.0446927374301676,0.01675977653631285,0.02793296089385475,0.00558659217877095,0.0111731843575419,0.02793296089385475,0.0446927374301676,0.0111731843575419,0.0335195530726257,0.00558659217877095,0.02793296089385475,0.0223463687150838,0.0,0.02793296089385475,0.01675977653631285,0.0223463687150838,0.0223463687150838,0.01675977653631285,0.0111731843575419,0.02793296089385475,0.03910614525139665,0.0111731843575419,0.0335195530726257,0.0223463687150838,0.0335195530726257,0.02793296089385475,0.05027932960893854,0.03910614525139665,0.0223463687150838,0.0223463687150838,0.01675977653631285,0.0335195530726257,0.03910614525139665,0.02793296089385475,0.0335195530726257,0.0111731843575419,0.02793296089385475,0.02793296089385475,0.0670391061452514,0.09497206703910616,0.10055865921787709,0.10614525139664804,0.12290502793296089,0.11731843575418993,0.11731843575418993,0.10614525139664804,0.11731843575418993,0.1564245810055866,0.12290502793296089,0.0893854748603352,0.0670391061452514,0.0446927374301676,0.07262569832402235,0.0446927374301676,0.07262569832402235,0.0558659217877095,0.02793296089385475,0.05027932960893854,0.05027932960893854,0.02793296089385475,0.01675977653631285,0.0,0.0,-0.0335195530726257,-0.0111731843575419,-0.01675977653631285,-0.0223463687150838,-0.00558659217877095,0.0,0.0,0.01675977653631285,0.05027932960893854,0.08379888268156424,0.16201117318435754,0.223463687150838,0.2849162011173184,0.2737430167597765,0.2122905027932961,0.17318435754189943,0.10055865921787709,-0.111731843575419,-0.4245810055865922,-0.6871508379888268,-0.770949720670391,-0.7486033519553073,-0.6424581005586592,-0.5083798882681564,-0.3184357541899441,-0.1899441340782123,-0.0670391061452514,-0.03910614525139665,0.0,0.00558659217877095,0.0335195530726257,0.0223463687150838,0.0223463687150838,0.00558659217877095,0.0223463687150838,0.0223463687150838,0.01675977653631285,0.061452513966480445,0.061452513966480445,0.061452513966480445,0.0558659217877095,0.03910614525139665,0.0335195530726257,0.03910614525139665,0.0446927374301676,0.0558659217877095,0.0335195530726257,0.0558659217877095,0.0335195530726257,0.0335195530726257,0.0446927374301676,0.061452513966480445,0.08379888268156424,0.0670391061452514,0.0670391061452514,0.08379888268156424,0.0893854748603352,0.10055865921787709,0.0782122905027933,0.07262569832402235,0.09497206703910616,0.0893854748603352,0.0893854748603352,0.0893854748603352,0.0893854748603352,0.0,0.0,0.0,0.0,0.0,N
0.17318435754189943,0.10055865921787709,-0.111731843575419,-0.4245810055865922,-0.6871508379888268,-0.770949720670391,-0.7486033519553073,-0.6424581005586592,-0.5083798882681564,-0.3184357541899441,-0.1899441340782123,-0.0670391061452514,-0.03910614525139665,0.0,0.00558659217877095,0.0335195530726257,0.0223463687150838,0.0223463687150838,0.00558659217877095,0.0223463687150838,0.0223463687150838,0.01675977653631285,0.061452513966480445,0.061452513966480445,0.061452513966480445,0.0558659217877095,0.03910614525139665,0.0335195530726257,0.03910614525139665,0.0446927374301676,0.0558659217877095,0.0335195530726257,0.0558659217877095,0.0335195530726257,0.0335195530726257,0.0446927374301676,0.061452513966480445,0.08379888268156424,0.0670391061452514,0.0670391061452514,0.08379888268156424,0.0893854748603352,0.10055865921787709,0.0782122905027933,0.07262569832402235,0.09497206703910616,0.0893854748603352,0.0893854748603352,0.0893854748603352,0.0893854748603352,0.1340782122905028,0.111731843575419,0.111731843575419,0.12290502793296089,0.12290502793296089,0.09497206703910616,0.111731843575419,0.07262569832402235,0.0893854748603352,0.0782122905027933,0.0782122905027933,0.0893854748603352,0.05027932960893854,0.0670391061452514,0.0782122905027933,0.08379888268156424,0.05027932960893854,0.0782122905027933,0.0782122905027933,0.08379888268156424,0.07262569832402235,0.0446927374301676,0.0670391061452514,0.0782122905027933,0.0670391061452514,0.0893854748603352,0.061452513966480445,0.0893854748603352,0.07262569832402235,0.05027932960893854,0.0558659217877095,0.07262569832402235,0.0558659217877095,0.03910614525139665,0.03910614525139665,0.0335195530726257,0.02793296089385475,0.0446927374301676,0.05027932960893854,0.0558659217877095,0.02793296089385475,0.01675977653631285,0.05027932960893854,0.05027932960893854,0.0335195530726257,0.01675977653631285,0.01675977653631285,0.0223463687150838,0.02793296089385475,0.0223463687150838,0.0223463687150838,0.01675977653631285,0.0558659217877095,0.03910614525139665,0.02793296089385475,0.061452513966480445,0.05027932960893854,0.0335195530726257,0.0335195530726257,0.05027932960893854,0.0335195530726257,0.0223463687150838,0.00558659217877095,0.01675977653631285,0.0223463687150838,0.02793296089385475,0.02793296089385475,0.0,0.02793296089385475,0.01675977653631285,0.0335195530726257,0.0223463687150838,0.02793296089385475,0.0,0.0111731843575419,0.02793296089385475,0.00558659217877095,0.0223463687150838,0.0111731843575419,0.0111731843575419,0.01675977653631285,0.0,-0.00558659217877095,0.00558659217877095,0.0111731843575419,0.0,0.0,0.0,0.00558659217877095,0.01675977653631285,-0.00558659217877095,-0.0223463687150838,0.01675977653631285,-0.00558659217877095,0.0111731843575419,0.0,0.01675977653631285,0.0,-0.0111731843575419,0.00558659217877095,0.0,0.0111731843575419,0.0,0.0,0.0335195530726257,0.02793296089385475,0.0223463687150838,-0.00558659217877095,0.0223463687150838,0.0,-0.0111731843575419,0.0,0.01675977653631285,0.0,-0.01675977653631285,-0.0223463687150838,-0.0111731843575419,-0.00558659217877095,-0.00558659217877095,-0.01675977653631285,-0.02793296089385475,0.0,-0.0223463687150838,-0.02793296089385475,-0.0111731843575419,-0.0223463687150838,-0.01675977653631285,-0.01675977653631285,0.0,0.0,0.0223463687150838,0.0,-0.0111731843575419,-0.0111731843575419,0.0,0.00558659217877095,-0.0111731843575419,0.01675977653631285,0.0,0.00558659217877095,0.00558659217877095,0.0,0.0,-0.0111731843575419,-0.00558659217877095,0.00558659217877095,-0.0111731843575419,-0.01675977653631285,-0.01675977653631285,-0.0111731843575419,-0.0223463687150838,-0.0335195530726257,-0.0335195530726257,-0.0111731843575419,0.0,0.0,0.0223463687150838,0.01675977653631285,0.02793296089385475,0.05027932960893854,0.02793296089385475,0.03910614525139665,0.061452513966480445,0.05027932960893854,0.05027932960893854,0.0893854748603352,0.061452513966480445,0.0670391061452514,0.05027932960893854,0.0,0.0223463687150838,0.00558659217877095,-0.0111731843575419,-0.0223463687150838,0.0,-0.02793296089385475,-0.01675977653631285,-0.0223463687150838,-0.0111731843575419,-0.0335195530726257,-0.02793296089385475,-0.01675977653631285,-0.0223463687150838,-0.05027932960893854,-0.061452513966480445,-0.07262569832402235,-0.07262569832402235,-0.0670391061452514,-0.061452513966480445,-0.03910614525139665,-0.01675977653631285,0.02793296089385475,0.07262569832402235,0.16759776536312848,0.21787709497206703,0.1899441340782123,0.11731843575418993,0.05027932960893854,-0.01675977653631285,-0.23463687150837986,-0.5642458100558659,-0.7653631284916201,-0.8491620111731844,-0.7821229050279329,-0.7094972067039106,-0.5865921787709497,-0.39106145251396646,-0.24022346368715083,-0.1564245810055866,-0.11731843575418993,-0.061452513966480445,-0.05027932960893854,-0.061452513966480445,-0.0335195530726257,-0.0446927374301676,-0.0446927374301676,-0.0446927374301676,-0.05027932960893854,-0.05027932960893854,-0.0558659217877095,-0.0223463687150838,-0.0335195530726257,-0.00558659217877095,-0.01675977653631285,-0.00558659217877095,-0.01675977653631285,-0.0223463687150838,-0.0223463687150838,0.0,-0.0223463687150838,-0.00558659217877095,-0.0223463687150838,-0.01675977653631285,-0.0446927374301676,-0.0223463687150838,-0.0111731843575419,-0.01675977653631285,-0.0111731843575419,0.0,-0.01675977653631285,-0.00558659217877095,-0.0223463687150838,-0.01675977653631285,-0.00558659217877095,0.01675977653631285,0.0,0.0,0.0,0.0,0.0,N
0.05027932960893854,-0.01675977653631285,-0.23463687150837986,-0.5642458100558659,-0.7653631284916201,-0.8491620111731844,-0.7821229050279329,-0.7094972067039106,-0.5865921787709497,-0.39106145251396646,-0.24022346368715083,-0.1564245810055866,-0.11731843575418993,-0.061452513966480445,-0.05027932960893854,-0.061452513966480445,-0.0335195530726257,-0.0446927374301676,-0.0446927374301676,-0.0446927374301676,-0.05027932960893854,-0.05027932960893854,-0.0558659217877095,-0.0223463687150838,-0.0335195530726257,-0.00558659217877095,-0.01675977653631285,-0.00558659217877095,-0.01675977653631285,-0.0223463687150838,-0.0223463687150838,0.0,-0.0223463687150838,-0.00558659217877095,-0.0223463687150838,-0.01675977653631285,-0.0446927374301676,-0.0223463687150838,-0.0111731843575419,-0.01675977653631285,-0.0111731843575419,0.0,-0.01675977653631285,-0.00558659217877095,-0.0223463687150838,-0.01675977653631285,-0.00558659217877095,0.01675977653631285,0.0,0.0223463687150838,0.00558659217877095,0.0,0.0,0.00558659217877095,0.0223463687150838,0.01675977653631285,0.0446927374301676,0.01675977653631285,0.00558659217877095,0.0,-0.01675977653631285,-0.02793296089385475,-0.01675977653631285,-0.0335195530726257,-0.0223463687150838,-0.0335195530726257,-0.0335195530726257,-0.0558659217877095,-0.061452513966480445,-0.03910614525139665,-0.05027932960893854,-0.03910614525139665,-0.01675977653631285,0.0,0.00558659217877095,0.0,0.0,0.01675977653631285,-0.0111731843575419,0.0,0.0223463687150838,0.0223463687150838,-0.00558659217877095,0.0111731843575419,0.0111731843575419,0.0,-0.0223463687150838,-0.0223463687150838,-0.0335195530726257,-0.0223463687150838,-0.0558659217877095,-0.0446927374301676,-0.061452513966480445,-0.0782122905027933,-0.10614525139664804,-0.09497206703910616,-0.0670391061452514,-0.08379888268156424,-0.0893854748603352,-0.10055865921787709,-0.0782122905027933,-0.10055865921787709,-0.0670391061452514,-0.07262569832402235,-0.07262569832402235,-0.0670391061452514,-0.0893854748603352,-0.05027932960893854,-0.0782122905027933,-0.07262569832402235,-0.061452513966480445,-0.061452513966480445,-0.0446927374301676,-0.0335195530726257,-0.0558659217877095,-0.0558659217877095,-0.061452513966480445,-0.07262569832402235,-0.061452513966480445,-0.03910614525139665,-0.0335195530726257,-0.0335195530726257,-0.0335195530726257,-0.03910614525139665,-0.07262569832402235,-0.07262569832402235,-0.0782122905027933,-0.0893854748603352,-0.061452513966480445,-0.07262569832402235,-0.0782122905027933,-0.08379888268156424,-0.08379888268156424,-0.08379888268156424,-0.0782122905027933,-0.0670391061452514,-0.0558659217877095,-0.0893854748603352,-0.08379888268156424,-0.111731843575419,-0.09497206703910616,-0.0893854748603352,-0.0893854748603352,-0.0893854748603352,-0.111731843575419,-0.111731843575419,-0.12290502793296089,-0.10614525139664804,-0.111731843575419,-0.11731843575418993,-0.08379888268156424,-0.12849162011173185,-0.10614525139664804,-0.0782122905027933,-0.10614525139664804,-0.10614525139664804,-0.08379888268156424,-0.10614525139664804,-0.09497206703910616,-0.08379888268156424,-0.0893854748603352,-0.09497206703910616,-0.10055865921787709,-0.0782122905027933,-0.08379888268156424,-0.0893854748603352,-0.0893854748603352,-0.09497206703910616,-0.08379888268156424,-0.0893854748603352,-0.08379888268156424,-0.10055865921787709,-0.10614525139664804,-0.10614525139664804,-0.09497206703910616,-0.12290502793296089,-0.12290502793296089,-0.111731843575419,-0.11731843575418993,-0.09497206703910616,-0.09497206703910616,-0.111731843575419,-0.12290502793296089,-0.1452513966480447,-0.15083798882681565,-0.1340782122905028,-0.13966480446927373,-0.10614525139664804,-0.09497206703910616,-0.12849162011173185,-0.12290502793296089,-0.11731843575418993,-0.11731843575418993,-0.12290502793296089,-0.111731843575419,-0.111731843575419,-0.111731843575419,-0.08379888268156424,-0.07262569832402235,-0.0893854748603352,-0.0893854748603352,-0.10614525139664804,-0.10055865921787709,-0.11731843575418993,-0.09497206703910616,-0.0670391061452514,-0.03910614525139665,-0.02793296089385475,-0.01675977653631285,-0.02793296089385475,-0.01675977653631285,0.01675977653631285,-0.0111731843575419,-0.0223463687150838,-0.0111731843575419,-0.0111731843575419,-0.00558659217877095,-0.03910614525139665,-0.0782122905027933,-0.08379888268156424,-0.10614525139664804,-0.07262569832402235,-0.0782122905027933,-0.09497206703910616,-0.0446927374301676,-0.0893854748603352,-0.0893854748603352,-0.0893854748603352,-0.11731843575418993,-0.15083798882681565,-0.13966480446927373,-0.15083798882681565,-0.13966480446927373,-0.1452513966480447,-0.16201117318435754,-0.1564245810055866,-0.1564245810055866,-0.12290502793296089,-0.1340782122905028,-0.0670391061452514,-0.0335195530726257,0.01675977653631285,0.0893854748603352,0.10614525139664804,0.13966480446927373,0.0893854748603352,0.0335195530726257,-0.08379888268156424,-0.3798882681564246,-0.6983240223463687,-0.9162011173184357,-0.9385474860335195,-0.8603351955307262,-0.7486033519553073,-0.5754189944134078,-0.44134078212290506,-0.30726256983240224,-0.22905027932960892,-0.16759776536312848,-0.17318435754189943,-0.12849162011173185,-0.16201117318435754,-0.16759776536312848,-0.1564245810055866,-0.11731843575418993,-0.12849162011173185,-0.13966480446927373,-0.12290502793296089,-0.12290502793296089,-0.09497206703910616,-0.0893854748603352,-0.09497206703910616,-0.11731843575418993,-0.0893854748603352,-0.111731843575419,-0.1340782122905028,-0.12290502793296089,-0.111731843575419,-0.12290502793296089,-0.10614525139664804,-0.11731843575418993,-0.10614525139664804,-0.10614525139664804,-0.10055865921787709,-0.0782122905027933,-0.0893854748603352,-0.09497206703910616,-0.10614525139664804,-0.09497206703910616,-0.10614525139664804,-0.10055865921787709,-0.0670391061452514,-0.0670391061452514,-0.07262569832402235,-0.0446927374301676,0.0,0.0,0.0,0.0,0.0,N
0.0335195530726257,-0.08379888268156424,-0.3798882681564246,-0.6983240223463687,-0.9162011173184357,-0.9385474860335195,-0.8603351955307262,-0.7486033519553073,-0.5754189944134078,-0.44134078212290506,-0.30726256983240224,-0.22905027932960892,-0.16759776536312848,-0.17318435754189943,-0.12849162011173185,-0.16201117318435754,-0.16759776536312848,-0.1564245810055866,-0.11731843575418993,-0.12849162011173185,-0.13966480446927373,-0.12290502793296089,-0.12290502793296089,-0.09497206703910616,-0.0893854748603352,-0.09497206703910616,-0.11731843575418993,-0.0893854748603352,-0.111731843575419,-0.1340782122905028,-0.12290502793296089,-0.111731843575419,-0.12290502793296089,-0.10614525139664804,-0.11731843575418993,-0.10614525139664804,-0.10614525139664804,-0.10055865921787709,-0.0782122905027933,-0.0893854748603352,-0.09497206703910616,-0.10614525139664804,-0.09497206703910616,-0.10614525139664804,-0.10055865921787709,-0.0670391061452514,-0.0670391061452514,-0.07262569832402235,-0.0446927374301676,-0.03910614525139665,-0.0558659217877095,-0.05027932960893854,-0.0558659217877095,-0.07262569832402235,-0.07262569832402235,-0.0782122905027933,-0.10055865921787709,-0.061452513966480445,-0.07262569832402235,-0.07262569832402235,-0.0782122905027933,-0.0893854748603352,-0.0670391061452514,-0.0782122905027933,-0.061452513966480445,-0.0893854748603352,-0.061452513966480445,-0.061452513966480445,-0.0558659217877095,-0.09497206703910616,-0.0446927374301676,-0.0782122905027933,-0.08379888268156424,-0.09497206703910616,-0.0670391061452514,-0.07262569832402235,-0.10614525139664804,-0.10055865921787709,-0.0893854748603352,-0.111731843575419,-0.10614525139664804,-0.08379888268156424,-0.09497206703910616,-0.12290502793296089,-0.1452513966480447,-0.1564245810055866,-0.13966480446927373,-0.15083798882681565,-0.13966480446927373,-0.16201117318435754,-0.1787709497206704,-0.1787709497206704,-0.16201117318435754,-0.16759776536312848,-0.1564245810055866,-0.1340782122905028,-0.15083798882681565,-0.1340782122905028,-0.12849162011173185,-0.1340782122905028,-0.111731843575419,-0.12849162011173185,-0.16201117318435754,-0.11731843575418993,-0.13966480446927373,-0.13966480446927373,-0.12290502793296089,-0.16759776536312848,-0.1564245810055866,-0.1452513966480447,-0.1564245810055866,-0.15083798882681565,-0.11731843575418993,-0.15083798882681565,-0.13966480446927373,-0.1564245810055866,-0.1452513966480447,-0.1564245810055866,-0.1564245810055866,-0.15083798882681565,-0.12849162011173185,-0.1452513966480447,-0.1452513966480447,-0.16201117318435754,-0.1564245810055866,-0.1787709497206704,-0.16759776536312848,-0.15083798882681565,-0.16759776536312848,-0.1452513966480447,-0.1452513966480447,-0.16201117318435754,-0.16201117318435754,-0.16201117318435754,-0.1452513966480447,-0.16201117318435754,-0.17318435754189943,-0.16201117318435754,-0.1564245810055866,-0.16201117318435754,-0.16759776536312848,-0.16201117318435754,-0.1787709497206704,-0.1899441340782123,-0.19553072625698323,-0.16759776536312848,-0.1787709497206704,-0.16759776536312848,-0.16201117318435754,-0.13966480446927373,-0.13966480446927373,-0.16759776536312848,-0.17318435754189943,-0.1787709497206704,-0.1452513966480447,-0.1564245810055866,-0.1452513966480447,-0.13966480446927373,-0.13966480446927373,-0.1564245810055866,-0.1564245810055866,-0.16759776536312848,-0.16759776536312848,-0.17318435754189943,-0.18435754189944134,-0.1899441340782123,-0.16759776536312848,-0.16201117318435754,-0.1564245810055866,-0.16759776536312848,-0.17318435754189943,-0.17318435754189943,-0.1564245810055866,-0.17318435754189943,-0.1899441340782123,-0.15083798882681565,-0.1787709497206704,-0.16759776536312848,-0.16759776536312848,-0.15083798882681565,-0.17318435754189943,-0.15083798882681565,-0.1564245810055866,-0.1564245810055866,-0.1787709497206704,-0.1787709497206704,-0.1340782122905028,-0.16759776536312848,-0.15083798882681565,-0.1340782122905028,-0.16201117318435754,-0.16759776536312848,-0.16201117318435754,-0.17318435754189943,-0.18435754189944134,-0.1564245810055866,-0.17318435754189943,-0.1564245810055866,-0.1452513966480447,-0.16201117318435754,-0.1452513966480447,-0.1564245810055866,-0.13966480446927373,-0.1564245810055866,-0.1564245810055866,-0.1452513966480447,-0.1340782122905028,-0.11731843575418993,-0.111731843575419,-0.0670391061452514,-0.07262569832402235,-0.05027932960893854,-0.0670391061452514,-0.0670391061452514,-0.07262569832402235,-0.0670391061452514,-0.08379888268156424,-0.10614525139664804,-0.111731843575419,-0.10614525139664804,-0.11731843575418993,-0.111731843575419,-0.111731843575419,-0.12290502793296089,-0.10055865921787709,-0.16201117318435754,-0.10055865921787709,-0.12290502793296089,-0.11731843575418993,-0.11731843575418993,-0.1452513966480447,-0.15083798882681565,-0.1452513966480447,-0.1452513966480447,-0.16759776536312848,-0.17318435754189943,-0.1564245810055866,-0.12849162011173185,-0.0446927374301676,-0.0558659217877095,0.01675977653631285,0.05027932960893854,0.08379888268156424,0.061452513966480445,0.0223463687150838,-0.01675977653631285,-0.1564245810055866,-0.43575418994413406,-0.7597765363128492,-0.9106145251396647,-0.9273743016759776,-0.8826815642458101,-0.7597765363128492,-0.5642458100558659,-0.4078212290502793,-0.3016759776536313,-0.21787709497206703,-0.1899441340782123,-0.1899441340782123,-0.20670391061452514,-0.19553072625698323,-0.1787709497206704,-0.16201117318435754,-0.1787709497206704,-0.16759776536312848,-0.16201117318435754,-0.15083798882681565,-0.1452513966480447,-0.15083798882681565,-0.12290502793296089,-0.1564245810055866,-0.1340782122905028,-0.10614525139664804,-0.0893854748603352,-0.10614525139664804,-0.111731843575419,-0.111731843575419,-0.12849162011173185,-0.12849162011173185,-0.11731843575418993,-0.11731843575418993,-0.111731843575419,-0.10614525139664804,-0.111731843575419,-0.10055865921787709,-0.10055865921787709,-0.10614525139664804,-0.0893854748603352,-0.0893854748603352,-0.0893854748603352,-0.07262569832402235,-0.08379888268156424,-0.10055865921787709,-0.07262569832402235,-0.08379888268156424,0.0,0.0,0.0,0.0,0.0,N
0.0223463687150838,-0.01675977653631285,-0.1564245810055866,-0.43575418994413406,-0.7597765363128492,-0.9106145251396647,-0.9273743016759776,-0.8826815642458101,-0.7597765363128492,-0.5642458100558659,-0.4078212290502793,-0.3016759776536313,-0.21787709497206703,-0.1899441340782123,-0.1899441340782123,-0.20670391061452514,-0.19553072625698323,-0.1787709497206704,-0.16201117318435754,-0.1787709497206704,-0.16759776536312848,-0.16201117318435754,-0.15083798882681565,-0.1452513966480447,-0.15083798882681565,-0.12290502793296089,-0.1564245810055866,-0.1340782122905028,-0.10614525139664804,-0.0893854748603352,-0.10614525139664804,-0.111731843575419,-0.111731843575419,-0.12849162011173185,-0.12849162011173185,-0.11731843575418993,-0.11731843575418993,-0.111731843575419,-0.10614525139664804,-0.111731843575419,-0.10055865921787709,-0.10055865921787709,-0.10614525139664804,-0.0893854748603352,-0.0893854748603352,-0.0893854748603352,-0.07262569832402235,-0.08379888268156424,-0.10055865921787709,-0.07262569832402235,-0.08379888268156424,-0.061452513966480445,-0.0893854748603352,-0.07262569832402235,-0.0558659217877095,-0.0893854748603352,-0.0893854748603352,-0.0893854748603352,-0.07262569832402235,-0.0893854748603352,-0.0893854748603352,-0.10614525139664804,-0.08379888268156424,-0.08379888268156424,-0.10055865921787709,-0.0782122905027933,-0.09497206703910616,-0.0782122905027933,-0.0782122905027933,-0.0782122905027933,-0.0782122905027933,-0.0893854748603352,-0.0670391061452514,-0.111731843575419,-0.07262569832402235,-0.0335195530726257,-0.03910614525139665,-0.0223463687150838,-0.00558659217877095,-0.00558659217877095,0.0223463687150838,0.03910614525139665,0.0558659217877095,0.01675977653631285,0.05027932960893854,0.05027932960893854,0.0111731843575419,-0.0223463687150838,-0.0223463687150838,-0.0446927374301676,-0.061452513966480445,-0.0782122905027933,-0.0670391061452514,-0.08379888268156424,-0.10055865921787709,-0.15083798882681565,-0.13966480446927373,-0.17318435754189943,-0.20111731843575417,-0.1899441340782123,-0.223463687150838,-0.223463687150838,-0.23463687150837986,-0.24022346368715083,-0.23463687150837986,-0.21787709497206703,-0.24581005586592178,-0.20670391061452514,-0.24581005586592178,-0.2122905027932961,-0.1899441340782123,-0.1787709497206704,-0.13966480446927373,-0.061452513966480445,0.01675977653631285,0.1340782122905028,0.21787709497206703,0.19553072625698323,0.1340782122905028,0.00558659217877095,-0.3184357541899441,-0.6983240223463687,-0.9106145251396647,-0.9217877094972067,-0.7877094972067038,-0.5865921787709497,-0.41899441340782123,-0.27932960893854747,-0.223463687150838,-0.23463687150837986,-0.20111731843575417,-0.20670391061452514,-0.223463687150838,-0.21787709497206703,-0.1899441340782123,-0.20111731843575417,-0.24022346368715083,-0.22905027932960892,-0.2569832402234637,-0.24022346368715083,-0.2681564245810056,-0.2737430167597765,-0.23463687150837986,-0.25139664804469275,-0.24581005586592178,-0.22905027932960892,-0.20670391061452514,-0.17318435754189943,-0.1787709497206704,-0.1787709497206704,-0.1787709497206704,-0.1452513966480447,-0.15083798882681565,-0.1340782122905028,-0.12849162011173185,-0.13966480446927373,-0.12290502793296089,-0.15083798882681565,-0.1452513966480447,-0.111731843575419,-0.12849162011173185,-0.09497206703910616,-0.0893854748603352,-0.111731843575419,-0.13966480446927373,-0.1452513966480447,-0.1564245810055866,-0.1564245810055866,-0.1452513966480447,-0.12849162011173185,-0.13966480446927373,-0.1452513966480447,-0.1340782122905028,-0.111731843575419,-0.10055865921787709,-0.1452513966480447,-0.12849162011173185,-0.12849162011173185,-0.15083798882681565,-0.1340782122905028,-0.15083798882681565,-0.1340782122905028,-0.10614525139664804,-0.10614525139664804,-0.12290502793296089,-0.111731843575419,-0.12849162011173185,-0.12290502793296089,-0.12290502793296089,-0.1452513966480447,-0.12849162011173185,-0.12849162011173185,-0.10614525139664804,-0.1452513966480447,-0.17318435754189943,-0.16759776536312848,-0.16201117318435754,-0.13966480446927373,-0.1452513966480447,-0.1340782122905028,-0.1452513966480447,-0.12849162011173185,-0.12290502793296089,-0.13966480446927373,-0.12290502793296089,-0.111731843575419,-0.10614525139664804,-0.1340782122905028,-0.1340782122905028,-0.11731843575418993,-0.1452513966480447,-0.13966480446927373,-0.16201117318435754,-0.17318435754189943,-0.13966480446927373,-0.1340782122905028,-0.1452513966480447,-0.13966480446927373,-0.1340782122905028,-0.11731843575418993,-0.12290502793296089,-0.1340782122905028,-0.16201117318435754,-0.15083798882681565,-0.11731843575418993,-0.1452513966480447,-0.12290502793296089,-0.1340782122905028,-0.15083798882681565,-0.12849162011173185,-0.13966480446927373,-0.15083798882681565,-0.15083798882681565,-0.1452513966480447,-0.15083798882681565,-0.12290502793296089,-0.18435754189944134,-0.1899441340782123,-0.17318435754189943,-0.16759776536312848,-0.1564245810055866,-0.1564245810055866,-0.13966480446927373,-0.13966480446927373,-0.11731843575418993,-0.12290502793296089,-0.1340782122905028,-0.16759776536312848,-0.1340782122905028,-0.1340782122905028,-0.12290502793296089,-0.11731843575418993,-0.1340782122905028,-0.15083798882681565,-0.1787709497206704,-0.16759776536312848,-0.16759776536312848,-0.17318435754189943,-0.19553072625698323,-0.16201117318435754,-0.12849162011173185,-0.1564245810055866,-0.16201117318435754,-0.1787709497206704,-0.16759776536312848,-0.1787709497206704,-0.1564245810055866,-0.16759776536312848,-0.1452513966480447,-0.16201117318435754,-0.17318435754189943,-0.1787709497206704,-0.16759776536312848,-0.1787709497206704,-0.19553072625698323,-0.19553072625698323,-0.1787709497206704,-0.18435754189944134,-0.20670391061452514,-0.1787709497206704,-0.20670391061452514,-0.1787709497206704,-0.17318435754189943,-0.2122905027932961,-0.1564245810055866,-0.15083798882681565,-0.16201117318435754,-0.1340782122905028,-0.15083798882681565,-0.1564245810055866,-0.1564245810055866,-0.1787709497206704,-0.17318435754189943,-0.15083798882681565,-0.17318435754189943,0.0,0.0,0.0,0.0,0.0,N
0.1340782122905028,0.00558659217877095,-0.3184357541899441,-0.6983240223463687,-0.9106145251396647,-0.9217877094972067,-0.7877094972067038,-0.5865921787709497,-0.41899441340782123,-0.27932960893854747,-0.223463687150838,-0.23463687150837986,-0.20111731843575417,-0.20670391061452514,-0.223463687150838,-0.21787709497206703,-0.1899441340782123,-0.20111731843575417,-0.24022346368715083,-0.22905027932960892,-0.2569832402234637,-0.24022346368715083,-0.2681564245810056,-0.2737430167597765,-0.23463687150837986,-0.25139664804469275,-0.24581005586592178,-0.22905027932960892,-0.20670391061452514,-0.17318435754189943,-0.1787709497206704,-0.1787709497206704,-0.1787709497206704,-0.1452513966480447,-0.15083798882681565,-0.1340782122905028,-0.12849162011173185,-0.13966480446927373,-0.12290502793296089,-0.15083798882681565,-0.1452513966480447,-0.111731843575419,-0.12849162011173185,-0.09497206703910616,-0.0893854748603352,-0.111731843575419,-0.13966480446927373,-0.1452513966480447,-0.1564245810055866,-0.1564245810055866,-0.1452513966480447,-0.12849162011173185,-0.13966480446927373,-0.1452513966480447,-0.1340782122905028,-0.111731843575419,-0.10055865921787709,-0.1452513966480447,-0.12849162011173185,-0.12849162011173185,-0.15083798882681565,-0.1340782122905028,-0.15083798882681565,-0.1340782122905028,-0.10614525139664804,-0.10614525139664804,-0.12290502793296089,-0.111731843575419,-0.12849162011173185,-0.12290502793296089,-0.12290502793296089,-0.1452513966480447,-0.12849162011173185,-0.12849162011173185,-0.10614525139664804,-0.1452513966480447,-0.17318435754189943,-0.16759776536312848,-0.16201117318435754,-0.13966480446927373,-0.1452513966480447,-0.1340782122905028,-0.1452513966480447,-0.12849162011173185,-0.12290502793296089,-0.13966480446927373,-0.12290502793296089,-0.111731843575419,-0.10614525139664804,-0.1340782122905028,-0.1340782122905028,-0.11731843575418993,-0.1452513966480447,-0.13966480446927373,-0.16201117318435754,-0.17318435754189943,-0.13966480446927373,-0.1340782122905028,-0.1452513966480447,-0.13966480446927373,-0.1340782122905028,-0.11731843575418993,-0.12290502793296089,-0.1340782122905028,-0.16201117318435754,-0.15083798882681565,-0.11731843575418993,-0.1452513966480447,-0.12290502793296089,-0.1340782122905028,-0.15083798882681565,-0.12849162011173185,-0.13966480446927373,-0.15083798882681565,-0.15083798882681565,-0.1452513966480447,-0.15083798882681565,-0.12290502793296089,-0.18435754189944134,-0.1899441340782123,-0.17318435754189943,-0.16759776536312848,-0.1564245810055866,-0.1564245810055866,-0.13966480446927373,-0.13966480446927373,-0.11731843575418993,-0.12290502793296089,-0.1340782122905028,-0.16759776536312848,-0.1340782122905028,-0.1340782122905028,-0.12290502793296089,-0.11731843575418993,-0.1340782122905028,-0.15083798882681565,-0.1787709497206704,-0.16759776536312848,-0.16759776536312848,-0.17318435754189943,-0.19553072625698323,-0.16201117318435754,-0.12849162011173185,-0.1564245810055866,-0.16201117318435754,-0.1787709497206704,-0.16759776536312848,-0.1787709497206704,-0.1564245810055866,-0.16759776536312848,-0.1452513966480447,-0.16201117318435754,-0.17318435754189943,-0.1787709497206704,-0.16759776536312848,-0.1787709497206704,-0.19553072625698323,-0.19553072625698323,-0.1787709497206704,-0.18435754189944134,-0.20670391061452514,-0.1787709497206704,-0.20670391061452514,-0.1787709497206704,-0.17318435754189943,-0.2122905027932961,-0.1564245810055866,-0.15083798882681565,-0.16201117318435754,-0.1340782122905028,-0.15083798882681565,-0.1564245810055866,-0.1564245810055866,-0.1787709497206704,-0.17318435754189943,-0.15083798882681565,-0.17318435754189943,-0.1787709497206704,-0.1899441340782123,-0.17318435754189943,-0.16201117318435754,-0.19553072625698323,-0.20670391061452514,-0.1899441340782123,-0.1564245810055866,-0.1452513966480447,-0.17318435754189943,-0.1787709497206704,-0.1787709497206704,-0.19553072625698323,-0.1899441340782123,-0.2122905027932961,-0.19553072625698323,-0.2122905027932961,-0.20670391061452514,-0.1899441340782123,-0.18435754189944134,-0.19553072625698323,-0.2122905027932961,-0.18435754189944134,-0.19553072625698323,-0.20111731843575417,-0.20111731843575417,-0.2122905027932961,-0.1787709497206704,-0.1899441340782123,-0.17318435754189943,-0.17318435754189943,-0.1787709497206704,-0.20670391061452514,-0.1899441340782123,-0.19553072625698323,-0.20111731843575417,-0.18435754189944134,-0.20670391061452514,-0.20670391061452514,-0.20111731843575417,-0.18435754189944134,-0.20111731843575417,-0.18435754189944134,-0.20670391061452514,-0.1787709497206704,-0.223463687150838,-0.2122905027932961,-0.20111731843575417,-0.19553072625698323,-0.2122905027932961,-0.22905027932960892,-0.20111731843575417,-0.20111731843575417,-0.20670391061452514,-0.22905027932960892,-0.223463687150838,-0.223463687150838,-0.223463687150838,-0.23463687150837986,-0.223463687150838,-0.20670391061452514,-0.21787709497206703,-0.21787709497206703,-0.22905027932960892,-0.26256983240223464,-0.23463687150837986,-0.23463687150837986,-0.22905027932960892,-0.2122905027932961,-0.223463687150838,-0.22905027932960892,-0.24022346368715083,-0.223463687150838,-0.223463687150838,-0.19553072625698323,-0.20670391061452514,-0.20111731843575417,-0.1899441340782123,-0.16201117318435754,-0.13966480446927373,-0.1564245810055866,-0.1340782122905028,-0.12849162011173185,-0.11731843575418993,-0.10055865921787709,-0.10055865921787709,-0.13966480446927373,-0.1340782122905028,-0.12290502793296089,-0.1340782122905028,-0.15083798882681565,-0.1340782122905028,-0.16201117318435754,-0.1564245810055866,-0.16201117318435754,-0.1787709497206704,-0.1787709497206704,-0.2122905027932961,-0.20111731843575417,-0.19553072625698323,-0.20670391061452514,-0.21787709497206703,-0.20670391061452514,-0.20111731843575417,-0.20111731843575417,-0.1564245810055866,-0.111731843575419,-0.0223463687150838,0.02793296089385475,0.05027932960893854,0.05027932960893854,0.03910614525139665,-0.0111731843575419,-0.12849162011173185,-0.4134078212290503,-0.7430167597765364,-0.9273743016759776,-1.0,0.0,0.0,0.0,0.0,0.0,N
0.03910614525139665,-0.0111731843575419,-0.12849162011173185,-0.4134078212290503,-0.7430167597765364,-0.9273743016759776,-1.0,-0.9162011173184357,-0.8044692737430167,-0.6703910614525139,-0.5027932960893855,-0.39106145251396646,-0.3184357541899441,-0.29608938547486036,-0.2681564245810056,-0.27932960893854747,-0.2849162011173184,-0.2681564245810056,-0.24581005586592178,-0.2681564245810056,-0.2737430167597765,-0.21787709497206703,-0.21787709497206703,-0.19553072625698323,-0.1899441340782123,-0.19553072625698323,-0.20670391061452514,-0.1787709497206704,-0.1564245810055866,-0.1899441340782123,-0.1899441340782123,-0.1787709497206704,-0.19553072625698323,-0.20670391061452514,-0.20111731843575417,-0.19553072625698323,-0.1899441340782123,-0.19553072625698323,-0.18435754189944134,-0.17318435754189943,-0.16201117318435754,-0.16759776536312848,-0.15083798882681565,-0.13966480446927373,-0.12290502793296089,-0.12849162011173185,-0.10614525139664804,-0.13966480446927373,-0.1452513966480447,-0.1452513966480447,-0.1452513966480447,-0.15083798882681565,-0.15083798882681565,-0.1564245810055866,-0.1340782122905028,-0.11731843575418993,-0.11731843575418993,-0.10614525139664804,-0.111731843575419,-0.1340782122905028,-0.12290502793296089,-0.11731843575418993,-0.111731843575419,-0.08379888268156424,-0.0782122905027933,-0.07262569832402235,-0.09497206703910616,-0.09497206703910616,-0.08379888268156424,-0.111731843575419,-0.11731843575418993,-0.10055865921787709,-0.10055865921787709,-0.10055865921787709,-0.0893854748603352,-0.10055865921787709,-0.10055865921787709,-0.0893854748603352,-0.07262569832402235,-0.09497206703910616,-0.07262569832402235,-0.10055865921787709,-0.10055865921787709,-0.09497206703910616,-0.08379888268156424,-0.09497206703910616,-0.10055865921787709,-0.11731843575418993,-0.13966480446927373,-0.10614525139664804,-0.111731843575419,-0.10614525139664804,-0.12290502793296089,-0.12849162011173185,-0.15083798882681565,-0.1340782122905028,-0.1564245810055866,-0.16201117318435754,-0.1340782122905028,-0.12290502793296089,-0.1340782122905028,-0.111731843575419,-0.12849162011173185,-0.1340782122905028,-0.1452513966480447,-0.12290502793296089,-0.12290502793296089,-0.1340782122905028,-0.1564245810055866,-0.1340782122905028,-0.13966480446927373,-0.09497206703910616,-0.08379888268156424,-0.10055865921787709,-0.10614525139664804,-0.08379888268156424,-0.10055865921787709,-0.0893854748603352,-0.11731843575418993,-0.12849162011173185,-0.11731843575418993,-0.12290502793296089,-0.12290502793296089,-0.1340782122905028,-0.13966480446927373,-0.11731843575418993,-0.12290502793296089,-0.11731843575418993,-0.111731843575419,-0.12290502793296089,-0.1340782122905028,-0.12849162011173185,-0.1452513966480447,-0.1564245810055866,-0.16759776536312848,-0.1564245810055866,-0.15083798882681565,-0.1564245810055866,-0.17318435754189943,-0.18435754189944134,-0.16759776536312848,-0.17318435754189943,-0.17318435754189943,-0.15083798882681565,-0.16759776536312848,-0.15083798882681565,-0.17318435754189943,-0.16201117318435754,-0.1787709497206704,-0.1787709497206704,-0.17318435754189943,-0.1899441340782123,-0.17318435754189943,-0.1564245810055866,-0.18435754189944134,-0.1899441340782123,-0.16759776536312848,-0.17318435754189943,-0.16759776536312848,-0.1787709497206704,-0.13966480446927373,-0.1340782122905028,-0.1452513966480447,-0.16759776536312848,-0.18435754189944134,-0.16201117318435754,-0.13966480446927373,-0.16201117318435754,-0.1787709497206704,-0.16759776536312848,-0.1787709497206704,-0.16759776536312848,-0.20111731843575417,-0.1787709497206704,-0.17318435754189943,-0.19553072625698323,-0.1787709497206704,-0.1787709497206704,-0.1564245810055866,-0.15083798882681565,-0.1899441340782123,-0.20670391061452514,-0.23463687150837986,-0.223463687150838,-0.20670391061452514,-0.1899441340782123,-0.20670391061452514,-0.1899441340782123,-0.19553072625698323,-0.20111731843575417,-0.1899441340782123,-0.2122905027932961,0.0,0.0,0.0,0.0,0.0,0.0,0.0,0.0,0.0,0.0,0.0,0.0,0.0,0.0,0.0,0.0,0.0,0.0,0.0,0.0,0.0,0.0,0.0,0.0,0.0,0.0,0.0,0.0,0.0,0.0,0.0,0.0,0.0,0.0,0.0,0.0,0.0,0.0,0.0,0.0,0.0,0.0,0.0,0.0,0.0,0.0,0.0,0.0,0.0,0.0,0.0,0.0,0.0,0.0,0.0,0.0,0.0,0.0,0.0,0.0,0.0,0.0,0.0,0.0,0.0,0.0,0.0,0.0,0.0,0.0,0.0,0.0,0.0,0.0,0.0,0.0,0.0,0.0,0.0,0.0,0.0,0.0,0.0,0.0,0.0,0.0,0.0,0.0,0.0,0.0,0.0,0.0,0.0,0.0,0.0,0.0,0.0,0.0,0.0,0.0,0.0,0.0,0.0,0.0,0.0,0.0,0.0,0.0,N
-0.20441988950276244,-0.18232044198895028,-0.16574585635359115,-0.1270718232044199,-0.08287292817679558,0.0055248618784530384,0.04419889502762431,0.06077348066298342,0.016574585635359115,-0.022099447513812154,-0.08839779005524862,-0.2983425414364641,-0.6077348066298343,-0.8176795580110497,-0.9171270718232043,-0.9060773480662982,-0.8176795580110497,-0.6740331491712707,-0.5193370165745856,-0.3701657458563536,-0.27624309392265195,-0.23756906077348064,-0.22651933701657456,-0.19889502762430938,-0.19889502762430938,-0.19889502762430938,-0.20994475138121546,-0.20441988950276244,-0.19337016574585633,-0.18232044198895028,-0.16574585635359115,-0.18784530386740333,-0.1546961325966851,-0.143646408839779,-0.1546961325966851,-0.14917127071823205,-0.143646408839779,-0.143646408839779,-0.20441988950276244,-0.1602209944751381,-0.1270718232044199,-0.12154696132596685,-0.143646408839779,-0.1546961325966851,-0.1602209944751381,-0.143646408839779,-0.143646408839779,-0.13259668508287292,-0.1270718232044199,-0.13812154696132597,-0.1602209944751381,-0.11602209944751381,-0.11602209944751381,-0.09392265193370167,-0.08839779005524862,-0.08839779005524862,-0.08839779005524862,-0.10497237569060773,-0.09944751381215469,-0.0718232044198895,-0.08839779005524862,-0.09944751381215469,-0.11049723756906078,-0.09944751381215469,-0.08839779005524862,-0.07734806629834255,-0.12154696132596685,-0.08839779005524862,-0.0718232044198895,-0.06077348066298342,-0.07734806629834255,-0.09392265193370167,-0.06077348066298342,-0.07734806629834255,-0.08287292817679558,-0.09392265193370167,-0.07734806629834255,-0.08287292817679558,-0.08839779005524862,-0.13259668508287292,-0.11602209944751381,-0.08839779005524862,-0.09944751381215469,-0.08839779005524862,-0.08839779005524862,-0.10497237569060773,-0.08839779005524862,-0.08839779005524862,-0.12154696132596685,-0.11049723756906078,-0.11602209944751381,-0.11049723756906078,-0.11049723756906078,-0.12154696132596685,-0.11602209944751381,-0.13259668508287292,-0.11049723756906078,-0.13812154696132597,-0.143646408839779,-0.1602209944751381,-0.1270718232044199,-0.13259668508287292,-0.1602209944751381,-0.16574585635359115,-0.14917127071823205,-0.16574585635359115,-0.143646408839779,-0.13259668508287292,-0.13812154696132597,-0.13259668508287292,-0.12154696132596685,-0.13259668508287292,-0.11602209944751381,-0.10497237569060773,-0.11602209944751381,-0.12154696132596685,-0.13259668508287292,-0.17679558011049723,-0.14917127071823205,-0.1712707182320442,-0.1270718232044199,-0.1546961325966851,-0.13812154696132597,-0.143646408839779,-0.1546961325966851,-0.1602209944751381,-0.143646408839779,-0.1546961325966851,-0.1602209944751381,-0.143646408839779,-0.1712707182320442,-0.13812154696132597,-0.14917127071823205,-0.1546961325966851,-0.1546961325966851,-0.1546961325966851,-0.14917127071823205,-0.13259668508287292,-0.11049723756906078,-0.11049723756906078,-0.13812154696132597,-0.1602209944751381,-0.14917127071823205,-0.1546961325966851,-0.1546961325966851,-0.1546961325966851,-0.18232044198895028,-0.18232044198895028,-0.17679558011049723,-0.17679558011049723,-0.16574585635359115,-0.1602209944751381,-0.1602209944751381,-0.1546961325966851,-0.1270718232044199,-0.11602209944751381,-0.1546961325966851,-0.13812154696132597,-0.14917127071823205,-0.16574585635359115,-0.1712707182320442,-0.17679558011049723,-0.1270718232044199,-0.10497237569060773,-0.13812154696132597,-0.13812154696132597,-0.1602209944751381,-0.14917127071823205,-0.17679558011049723,-0.18784530386740333,-0.1712707182320442,-0.14917127071823205,-0.17679558011049723,-0.19337016574585633,-0.1712707182320442,-0.17679558011049723,-0.1602209944751381,-0.13259668508287292,-0.143646408839779,-0.14917127071823205,-0.1546961325966851,-0.1546961325966851,-0.17679558011049723,-0.1602209944751381,-0.14917127071823205,-0.14917127071823205,-0.13259668508287292,-0.1712707182320442,-0.16574585635359115,-0.1546961325966851,-0.14917127071823205,-0.1546961325966851,-0.13259668508287292,-0.14917127071823205,-0.13259668508287292,-0.10497237569060773,-0.11602209944751381,-0.09392265193370167,-0.10497237569060773,-0.09392265193370167,-0.09392265193370167,-0.09944751381215469,-0.08839779005524862,-0.08839779005524862,-0.10497237569060773,-0.09944751381215469,-0.10497237569060773,-0.10497237569060773,-0.10497237569060773,-0.11049723756906078,-0.09944751381215469,-0.08287292817679558,-0.08839779005524862,-0.08839779005524862,-0.08839779005524862,-0.0718232044198895,-0.06629834254143646,-0.049723756906077346,-0.04419889502762431,-0.038674033149171276,-0.016574585635359115,-0.03314917127071823,-0.027624309392265196,-0.038674033149171276,-0.038674033149171276,-0.049723756906077346,-0.06629834254143646,-0.08287292817679558,-0.09392265193370167,-0.13812154696132597,-0.10497237569060773,-0.09944751381215469,-0.07734806629834255,-0.08839779005524862,-0.09392265193370167,-0.10497237569060773,-0.11602209944751381,-0.08287292817679558,-0.06077348066298342,-0.08839779005524862,-0.08839779005524862,-0.12154696132596685,-0.13812154696132597,-0.14917127071823205,-0.1602209944751381,-0.16574585635359115,-0.17679558011049723,-0.17679558011049723,-0.13812154696132597,-0.10497237569060773,-0.0718232044198895,0.027624309392265196,0.14917127071823205,0.1546961325966851,0.11602209944751381,0.05524861878453039,0.0,-0.06077348066298342,-0.2983425414364641,-0.6132596685082873,-0.861878453038674,-0.9613259668508287,-0.9005524861878452,-0.8176795580110497,-0.6740331491712707,-0.5193370165745856,-0.38674033149171266,-0.3204419889502762,-0.281767955801105,-0.24861878453038674,-0.24861878453038674,-0.22099447513812157,-0.20441988950276244,-0.19889502762430938,-0.22651933701657456,-0.19889502762430938,-0.19889502762430938,-0.19889502762430938,-0.18784530386740333,-0.2154696132596685,-0.2154696132596685,-0.22099447513812157,-0.2154696132596685,-0.20441988950276244,-0.17679558011049723,-0.17679558011049723,-0.1602209944751381,-0.19889502762430938,-0.18784530386740333,-0.1712707182320442,-0.19889502762430938,-0.19889502762430938,-0.1602209944751381,0.0,0.0,0.0,0.0,0.0,0.0,0.0,N
-0.06077348066298342,-0.2983425414364641,-0.6132596685082873,-0.861878453038674,-0.9613259668508287,-0.9005524861878452,-0.8176795580110497,-0.6740331491712707,-0.5193370165745856,-0.38674033149171266,-0.3204419889502762,-0.281767955801105,-0.24861878453038674,-0.24861878453038674,-0.22099447513812157,-0.20441988950276244,-0.19889502762430938,-0.22651933701657456,-0.19889502762430938,-0.19889502762430938,-0.19889502762430938,-0.18784530386740333,-0.2154696132596685,-0.2154696132596685,-0.22099447513812157,-0.2154696132596685,-0.20441988950276244,-0.17679558011049723,-0.17679558011049723,-0.1602209944751381,-0.19889502762430938,-0.18784530386740333,-0.1712707182320442,-0.19889502762430938,-0.19889502762430938,-0.1602209944751381,-0.1546961325966851,-0.1546961325966851,-0.1602209944751381,-0.1270718232044199,-0.1270718232044199,-0.13812154696132597,-0.13812154696132597,-0.13812154696132597,-0.12154696132596685,-0.1270718232044199,-0.12154696132596685,-0.12154696132596685,-0.13259668508287292,-0.1602209944751381,-0.1546961325966851,-0.13812154696132597,-0.1602209944751381,-0.14917127071823205,-0.1546961325966851,-0.1712707182320442,-0.20441988950276244,-0.19337016574585633,-0.17679558011049723,-0.18232044198895028,-0.19337016574585633,-0.14917127071823205,-0.13259668508287292,-0.17679558011049723,-0.13259668508287292,-0.1270718232044199,-0.11602209944751381,-0.09944751381215469,-0.07734806629834255,-0.0718232044198895,-0.06629834254143646,-0.04419889502762431,-0.038674033149171276,-0.038674033149171276,-0.03314917127071823,-0.016574585635359115,-0.027624309392265196,-0.016574585635359115,-0.016574585635359115,-0.016574585635359115,-0.05524861878453039,-0.05524861878453039,-0.06077348066298342,-0.07734806629834255,-0.07734806629834255,-0.08839779005524862,-0.07734806629834255,-0.08839779005524862,-0.09392265193370167,-0.1270718232044199,-0.1270718232044199,-0.16574585635359115,-0.16574585635359115,-0.17679558011049723,-0.19889502762430938,-0.20994475138121546,-0.23756906077348064,-0.22651933701657456,-0.22099447513812157,-0.22099447513812157,-0.22651933701657456,-0.22099447513812157,-0.19337016574585633,-0.19889502762430938,-0.20441988950276244,-0.20441988950276244,-0.18784530386740333,-0.19337016574585633,-0.1602209944751381,-0.14917127071823205,-0.1270718232044199,-0.11049723756906078,-0.1270718232044199,-0.09944751381215469,-0.11049723756906078,-0.11602209944751381,-0.09944751381215469,-0.06629834254143646,-0.08287292817679558,-0.0718232044198895,-0.05524861878453039,-0.038674033149171276,-0.049723756906077346,-0.06077348066298342,-0.03314917127071823,-0.07734806629834255,-0.05524861878453039,-0.038674033149171276,-0.04419889502762431,-0.05524861878453039,-0.04419889502762431,-0.05524861878453039,-0.04419889502762431,-0.03314917127071823,-0.027624309392265196,-0.0055248618784530384,-0.0055248618784530384,-0.011049723756906077,-0.022099447513812154,-0.027624309392265196,-0.011049723756906077,-0.0055248618784530384,-0.022099447513812154,-0.011049723756906077,0.0,-0.0055248618784530384,-0.0055248618784530384,0.0,-0.011049723756906077,-0.022099447513812154,-0.03314917127071823,-0.03314917127071823,-0.049723756906077346,-0.016574585635359115,-0.022099447513812154,-0.038674033149171276,-0.038674033149171276,-0.016574585635359115,-0.03314917127071823,-0.03314917127071823,-0.027624309392265196,-0.03314917127071823,-0.038674033149171276,-0.05524861878453039,-0.04419889502762431,-0.06629834254143646,-0.07734806629834255,-0.07734806629834255,-0.08839779005524862,-0.11602209944751381,-0.10497237569060773,-0.12154696132596685,-0.12154696132596685,-0.143646408839779,-0.1602209944751381,-0.1712707182320442,-0.1712707182320442,-0.1712707182320442,-0.17679558011049723,-0.18784530386740333,-0.18784530386740333,-0.19889502762430938,-0.20994475138121546,-0.20994475138121546,-0.22099447513812157,-0.22099447513812157,-0.20994475138121546,-0.20994475138121546,-0.19337016574585633,-0.18784530386740333,-0.19337016574585633,-0.19337016574585633,-0.2154696132596685,-0.18232044198895028,-0.17679558011049723,-0.17679558011049723,-0.17679558011049723,-0.1712707182320442,-0.16574585635359115,-0.1712707182320442,-0.18784530386740333,-0.17679558011049723,-0.1546961325966851,-0.1546961325966851,-0.13812154696132597,-0.12154696132596685,-0.09392265193370167,-0.07734806629834255,-0.09944751381215469,-0.09944751381215469,-0.08839779005524862,-0.09392265193370167,-0.11049723756906078,-0.1270718232044199,-0.1270718232044199,-0.1712707182320442,-0.19889502762430938,-0.16574585635359115,-0.13259668508287292,-0.17679558011049723,-0.16574585635359115,-0.20994475138121546,-0.20994475138121546,-0.18784530386740333,-0.20441988950276244,-0.20994475138121546,-0.2154696132596685,-0.2541436464088398,-0.23756906077348064,-0.26519337016574585,-0.26519337016574585,-0.26519337016574585,-0.2430939226519337,-0.22099447513812157,-0.2430939226519337,-0.19889502762430938,-0.1602209944751381,-0.10497237569060773,-0.04419889502762431,-0.011049723756906077,0.0,-0.022099447513812154,-0.016574585635359115,-0.11049723756906078,-0.4143646408839779,-0.7513812154696133,-0.9558011049723757,-0.9779005524861878,-0.9337016574585635,-0.7900552486187845,-0.6519337016574586,-0.4972375690607735,-0.36464088397790057,-0.3425414364640884,-0.287292817679558,-0.2983425414364641,-0.26519337016574585,-0.26519337016574585,-0.24861878453038674,-0.2430939226519337,-0.26519337016574585,-0.2596685082872928,-0.287292817679558,-0.26519337016574585,-0.27624309392265195,-0.26519337016574585,-0.26519337016574585,-0.23756906077348064,-0.19889502762430938,-0.23204419889502761,-0.2154696132596685,-0.20441988950276244,-0.20441988950276244,-0.17679558011049723,-0.1602209944751381,-0.17679558011049723,-0.19337016574585633,-0.1712707182320442,-0.1546961325966851,-0.18784530386740333,-0.1712707182320442,-0.16574585635359115,-0.13259668508287292,-0.13812154696132597,-0.143646408839779,-0.13812154696132597,-0.143646408839779,-0.13812154696132597,-0.11049723756906078,-0.08287292817679558,-0.08839779005524862,-0.06077348066298342,-0.08839779005524862,0.0,0.0,0.0,0.0,0.0,0.0,0.0,N
-0.016574585635359115,-0.11049723756906078,-0.4143646408839779,-0.7513812154696133,-0.9558011049723757,-0.9779005524861878,-0.9337016574585635,-0.7900552486187845,-0.6519337016574586,-0.4972375690607735,-0.36464088397790057,-0.3425414364640884,-0.287292817679558,-0.2983425414364641,-0.26519337016574585,-0.26519337016574585,-0.24861878453038674,-0.2430939226519337,-0.26519337016574585,-0.2596685082872928,-0.287292817679558,-0.26519337016574585,-0.27624309392265195,-0.26519337016574585,-0.26519337016574585,-0.23756906077348064,-0.19889502762430938,-0.23204419889502761,-0.2154696132596685,-0.20441988950276244,-0.20441988950276244,-0.17679558011049723,-0.1602209944751381,-0.17679558011049723,-0.19337016574585633,-0.1712707182320442,-0.1546961325966851,-0.18784530386740333,-0.1712707182320442,-0.16574585635359115,-0.13259668508287292,-0.13812154696132597,-0.143646408839779,-0.13812154696132597,-0.143646408839779,-0.13812154696132597,-0.11049723756906078,-0.08287292817679558,-0.08839779005524862,-0.06077348066298342,-0.08839779005524862,-0.08287292817679558,-0.07734806629834255,-0.09944751381215469,-0.09392265193370167,-0.09392265193370167,-0.09392265193370167,-0.09944751381215469,-0.08839779005524862,-0.08839779005524862,-0.11049723756906078,-0.08839779005524862,-0.11602209944751381,-0.10497237569060773,-0.08839779005524862,-0.09944751381215469,-0.11049723756906078,-0.08839779005524862,-0.11049723756906078,-0.13259668508287292,-0.11602209944751381,-0.10497237569060773,-0.13259668508287292,-0.1270718232044199,-0.12154696132596685,-0.12154696132596685,-0.12154696132596685,-0.12154696132596685,-0.11602209944751381,-0.13812154696132597,-0.1270718232044199,-0.1270718232044199,-0.13259668508287292,-0.13259668508287292,-0.16574585635359115,-0.16574585635359115,-0.18784530386740333,-0.18232044198895028,-0.19889502762430938,-0.19337016574585633,-0.20441988950276244,-0.20441988950276244,-0.20994475138121546,-0.24861878453038674,-0.23756906077348064,-0.24861878453038674,-0.2541436464088398,-0.2596685082872928,-0.287292817679558,-0.26519337016574585,-0.2928176795580111,-0.27071823204419887,-0.27624309392265195,-0.3149171270718232,-0.2541436464088398,-0.27624309392265195,-0.26519337016574585,-0.26519337016574585,-0.281767955801105,-0.27071823204419887,-0.2983425414364641,-0.281767955801105,-0.2928176795580111,-0.2983425414364641,-0.287292817679558,-0.2596685082872928,-0.281767955801105,-0.281767955801105,-0.2541436464088398,-0.27071823204419887,-0.2928176795580111,-0.2983425414364641,-0.3149171270718232,-0.281767955801105,-0.2983425414364641,-0.2983425414364641,-0.2983425414364641,-0.26519337016574585,-0.287292817679558,-0.27624309392265195,-0.287292817679558,-0.27624309392265195,-0.3093922651933702,-0.27624309392265195,-0.287292817679558,-0.27071823204419887,-0.27624309392265195,-0.281767955801105,-0.281767955801105,-0.27071823204419887,-0.27624309392265195,-0.2928176795580111,-0.287292817679558,-0.3093922651933702,-0.27071823204419887,-0.2928176795580111,-0.30386740331491713,-0.2983425414364641,-0.26519337016574585,-0.26519337016574585,-0.281767955801105,-0.281767955801105,-0.2983425414364641,-0.2541436464088398,-0.287292817679558,-0.26519337016574585,-0.27624309392265195,-0.2928176795580111,-0.2928176795580111,-0.27624309392265195,-0.27624309392265195,-0.2983425414364641,-0.287292817679558,-0.2928176795580111,-0.2983425414364641,-0.3149171270718232,-0.3259668508287293,-0.2983425414364641,-0.30386740331491713,-0.30386740331491713,-0.2928176795580111,-0.287292817679558,-0.2983425414364641,-0.27624309392265195,-0.281767955801105,-0.27624309392265195,-0.287292817679558,-0.281767955801105,-0.27624309392265195,-0.287292817679558,-0.2928176795580111,-0.2983425414364641,-0.2928176795580111,-0.281767955801105,-0.30386740331491713,-0.2928176795580111,-0.287292817679558,-0.27624309392265195,-0.287292817679558,-0.2928176795580111,-0.287292817679558,-0.2928176795580111,-0.30386740331491713,-0.2983425414364641,-0.281767955801105,-0.287292817679558,-0.2928176795580111,-0.281767955801105,-0.3093922651933702,-0.3149171270718232,-0.2983425414364641,-0.287292817679558,-0.30386740331491713,-0.3093922651933702,-0.2928176795580111,-0.3093922651933702,-0.2928176795580111,-0.281767955801105,-0.27071823204419887,-0.2541436464088398,-0.2430939226519337,-0.22651933701657456,-0.23756906077348064,-0.22099447513812157,-0.19337016574585633,-0.19889502762430938,-0.20441988950276244,-0.22651933701657456,-0.22099447513812157,-0.22099447513812157,-0.24861878453038674,-0.23204419889502761,-0.27071823204419887,-0.27624309392265195,-0.2541436464088398,-0.2541436464088398,-0.27624309392265195,-0.27624309392265195,-0.2983425414364641,-0.2928176795580111,-0.2928176795580111,-0.2983425414364641,-0.3204419889502762,-0.33701657458563533,-0.35359116022099446,-0.35359116022099446,-0.35359116022099446,-0.35359116022099446,-0.3425414364640884,-0.35359116022099446,-0.3259668508287293,-0.287292817679558,-0.26519337016574585,-0.22099447513812157,-0.18232044198895028,-0.11049723756906078,-0.08839779005524862,-0.09944751381215469,-0.09944751381215469,-0.13812154696132597,-0.20441988950276244,-0.45856353591160215,-0.7569060773480664,-0.9779005524861878,-1.0,-0.988950276243094,-0.9005524861878452,-0.7790055248618784,-0.6243093922651933,-0.5027624309392266,-0.4088397790055249,-0.35359116022099446,-0.3314917127071823,-0.3149171270718232,-0.3314917127071823,-0.3259668508287293,-0.3149171270718232,-0.287292817679558,-0.281767955801105,-0.2541436464088398,-0.27071823204419887,-0.26519337016574585,-0.2541436464088398,-0.2541436464088398,-0.2596685082872928,-0.23756906077348064,-0.24861878453038674,-0.24861878453038674,-0.2541436464088398,-0.22651933701657456,-0.23756906077348064,-0.23204419889502761,-0.23204419889502761,-0.2430939226519337,-0.23204419889502761,-0.20441988950276244,-0.22099447513812157,-0.20994475138121546,-0.19889502762430938,-0.22099447513812157,-0.20441988950276244,-0.22099447513812157,-0.20441988950276244,0.0,0.0,0.0,0.0,0.0,0.0,0.0,N
-0.20441988950276244,-0.45856353591160215,-0.7569060773480664,-0.9779005524861878,-1.0,-0.988950276243094,-0.9005524861878452,-0.7790055248618784,-0.6243093922651933,-0.5027624309392266,-0.4088397790055249,-0.35359116022099446,-0.3314917127071823,-0.3149171270718232,-0.3314917127071823,-0.3259668508287293,-0.3149171270718232,-0.287292817679558,-0.281767955801105,-0.2541436464088398,-0.27071823204419887,-0.26519337016574585,-0.2541436464088398,-0.2541436464088398,-0.2596685082872928,-0.23756906077348064,-0.24861878453038674,-0.24861878453038674,-0.2541436464088398,-0.22651933701657456,-0.23756906077348064,-0.23204419889502761,-0.23204419889502761,-0.2430939226519337,-0.23204419889502761,-0.20441988950276244,-0.22099447513812157,-0.20994475138121546,-0.19889502762430938,-0.22099447513812157,-0.20441988950276244,-0.22099447513812157,-0.20441988950276244,-0.19337016574585633,-0.19889502762430938,-0.19889502762430938,-0.18232044198895028,-0.18232044198895028,-0.143646408839779,-0.16574585635359115,-0.16574585635359115,-0.1602209944751381,-0.18232044198895028,-0.19889502762430938,-0.17679558011049723,-0.17679558011049723,-0.16574585635359115,-0.16574585635359115,-0.13812154696132597,-0.13259668508287292,-0.143646408839779,-0.1602209944751381,-0.143646408839779,-0.14917127071823205,-0.1602209944751381,-0.12154696132596685,-0.13812154696132597,-0.11602209944751381,-0.14917127071823205,-0.13812154696132597,-0.1270718232044199,-0.12154696132596685,-0.11602209944751381,-0.11049723756906078,-0.09944751381215469,-0.08287292817679558,-0.07734806629834255,-0.049723756906077346,-0.04419889502762431,-0.016574585635359115,-0.011049723756906077,-0.011049723756906077,-0.011049723756906077,-0.038674033149171276,-0.09944751381215469,-0.1546961325966851,-0.143646408839779,-0.17679558011049723,-0.18784530386740333,-0.17679558011049723,-0.18784530386740333,-0.20441988950276244,-0.23204419889502761,-0.2541436464088398,-0.2596685082872928,-0.2596685082872928,-0.26519337016574585,-0.27071823204419887,-0.26519337016574585,-0.3149171270718232,-0.27624309392265195,-0.281767955801105,-0.27624309392265195,-0.281767955801105,-0.2541436464088398,-0.26519337016574585,-0.26519337016574585,-0.24861878453038674,-0.2596685082872928,-0.23204419889502761,-0.19337016574585633,-0.16574585635359115,-0.11602209944751381,-0.09944751381215469,-0.022099447513812154,0.038674033149171276,0.14917127071823205,0.20994475138121546,0.27624309392265195,0.2541436464088398,0.06077348066298342,-0.287292817679558,-0.6629834254143646,-0.8839779005524863,-0.8784530386740331,-0.7348066298342542,-0.6022099447513812,-0.44198895027624313,-0.3425414364640884,-0.33701657458563533,-0.287292817679558,-0.2928176795580111,-0.2928176795580111,-0.27624309392265195,-0.2928176795580111,-0.287292817679558,-0.27624309392265195,-0.281767955801105,-0.27624309392265195,-0.287292817679558,-0.27624309392265195,-0.2541436464088398,-0.2430939226519337,-0.2541436464088398,-0.2430939226519337,-0.20994475138121546,-0.17679558011049723,-0.22651933701657456,-0.2541436464088398,-0.2596685082872928,-0.26519337016574585,-0.2430939226519337,-0.20441988950276244,-0.22651933701657456,-0.22099447513812157,-0.20994475138121546,-0.2154696132596685,-0.22651933701657456,-0.22651933701657456,-0.2541436464088398,-0.23756906077348064,-0.2154696132596685,-0.24861878453038674,-0.2430939226519337,-0.2430939226519337,-0.23204419889502761,-0.2430939226519337,-0.23204419889502761,-0.2541436464088398,-0.2430939226519337,-0.23756906077348064,-0.27624309392265195,-0.281767955801105,-0.26519337016574585,-0.287292817679558,-0.3149171270718232,-0.3259668508287293,-0.3149171270718232,-0.3093922651933702,-0.3149171270718232,-0.3149171270718232,-0.30386740331491713,-0.3149171270718232,-0.3204419889502762,-0.3204419889502762,-0.27071823204419887,-0.27624309392265195,-0.26519337016574585,-0.26519337016574585,-0.27071823204419887,-0.2541436464088398,-0.2596685082872928,-0.26519337016574585,-0.26519337016574585,-0.2541436464088398,-0.2430939226519337,-0.2541436464088398,-0.24861878453038674,-0.23756906077348064,-0.22099447513812157,-0.20441988950276244,-0.20441988950276244,-0.19337016574585633,-0.18784530386740333,-0.18232044198895028,-0.1546961325966851,-0.1712707182320442,-0.13259668508287292,-0.09944751381215469,-0.09392265193370167,-0.07734806629834255,-0.07734806629834255,-0.143646408839779,-0.22099447513812157,-0.24861878453038674,-0.2983425414364641,-0.2983425414364641,-0.287292817679558,-0.281767955801105,-0.26519337016574585,-0.2541436464088398,-0.2541436464088398,-0.26519337016574585,-0.2983425414364641,-0.3093922651933702,-0.30386740331491713,-0.281767955801105,-0.23756906077348064,-0.2541436464088398,-0.2541436464088398,-0.27071823204419887,-0.27071823204419887,-0.2430939226519337,-0.24861878453038674,-0.2430939226519337,-0.23204419889502761,-0.2541436464088398,-0.27071823204419887,-0.24861878453038674,-0.2430939226519337,-0.23756906077348064,-0.20441988950276244,-0.20994475138121546,-0.17679558011049723,-0.18232044198895028,-0.16574585635359115,-0.1712707182320442,-0.1712707182320442,-0.143646408839779,-0.16574585635359115,-0.13812154696132597,-0.11602209944751381,-0.13259668508287292,-0.13812154696132597,-0.14917127071823205,-0.13259668508287292,-0.14917127071823205,-0.1602209944751381,-0.16574585635359115,-0.17679558011049723,-0.17679558011049723,-0.18784530386740333,-0.20441988950276244,-0.20994475138121546,-0.2154696132596685,-0.2430939226519337,-0.23204419889502761,-0.24861878453038674,-0.27071823204419887,-0.2928176795580111,-0.287292817679558,-0.26519337016574585,-0.2541436464088398,-0.22651933701657456,-0.2430939226519337,-0.23204419889502761,-0.23756906077348064,-0.23204419889502761,-0.22651933701657456,-0.2154696132596685,-0.20994475138121546,-0.19889502762430938,-0.20994475138121546,-0.20994475138121546,-0.18784530386740333,-0.18232044198895028,-0.18784530386740333,-0.19337016574585633,-0.19889502762430938,-0.20441988950276244,-0.19337016574585633,-0.17679558011049723,-0.1712707182320442,0.0,0.0,0.0,0.0,0.0,0.0,0.0,N
