0.12375138302389382,0.11698161490465842,0.10914296854454825,0.10124039960086312,0.09462084839657417,0.09018644529830988,0.08822978847603376,0.08826837323092121,0.08894484030572376,0.08868471596003626,0.08581735486008527,0.07920491712168556,0.06875379643545579,0.05564939738672951,0.04280144115901416,0.03430395340642594,0.034921426523145324,0.04923921963999036,0.08060476866924596,0.13058628673020972,0.19814546086070292,0.2795636094390029,0.36881300053943117,0.45827841798425584,0.5403731202123054,0.6085147888981146,0.6583389178187724,0.6883867814388719,0.7000314638895556,0.6974550910770524,0.6861986965879516,0.6719562994136499,0.6592921407325834,0.6505226473338389,0.6458883112753505,0.6433244515918323,0.6393622621382904,0.6301975000262947,0.6125861593730557,0.5852689923767873,0.5488080007735876,0.5055886574778607,0.4592156836214598,0.4134895126036928,0.37203236655374566,0.33710321285565736,0.30942143785759413,0.2882338672166248,0.27159218578939964,0.25738279262651426,0.2434918966701963,0.2284687649099358,0.21180524547519936,0.1938562844510087,0.17589171995019448,0.15935966861029574,0.14557595171415932,0.13537662373377388,0.12888281334415005,0.12565061165398098,0.12462496543974495,0.12452075254121404,0.12417423382610986,0.12283137656434309,0.1203970585546065,0.11731601592012131,0.11448045578042215,0.11297184391844582,0.11376458966840375,0.1174369404489829,0.12395610656110345,0.13269055904868976,0.14255565899667194,0.1521203491576165,0.16051707454301206,0.1668406768288768,0.1706678702767678,0.17213947407489805,0.17157153794601832,0.1704846060055119,0.16965191358318663,0.16953219947400933,0.1702076008536893,0.17109629576754942,0.17222563006478775,0.17273346899754138,0.17167465141184945,0.16827572763248055,0.16183516164007478,0.15297057851004892,0.14203971815475444,0.12965783225945549,0.11662291454303052,0.10357184438143761,0.09166726796347985,0.0813118974418787,0.0725174980380839,0.06497010145358051,0.05802185147546938,0.051382947438786436,0.0445513945132432,0.03721019630217743,0.029316974955743463,0.02101148574325621,0.012913583707855647,0.0054682171442134424,-0.0009934830627142397,-0.006336151542093578,-0.010701510077713717,-0.014250162575940044,-0.017391357324508295,-0.020537321139939158,-0.02397222162134025,-0.027814876362282307,-0.031805901603371614,-0.03565120734775034,-0.03901195788481678,-0.04160829170058692,-0.043346758665603384,-0.04418785342815095,-0.04438228766769771,-0.04429139102154718,-0.044265435694656685,-0.04458578691002873,-0.04517507119927639,-0.04591957730782853,-0.04659149520957322,-0.046922579688726436,-0.046758056679848385,-0.04585473584534924,-0.04430735199776558,-0.04236372509516347,-0.04033337880522448,-0.03855993489436075,-0.037042511766288755,-0.03581113866082975,-0.034773589408483255,-0.033744177921722525,-0.03258595189013593,-0.030957122802929515,-0.028796412652156357,-0.026182129294378274,-0.023301931137212864,-0.020498149037123718,-0.017875362241888744,-0.01564071471333874,-0.013943879998780707,-0.012859684352703203,-0.01249731994504932,-0.012659168641677859,-0.013199857587399094,-0.013949486342724948,-0.014741796867488726,-0.01552960618017471,-0.016134939557520607,-0.016503164395445684,-0.016643169184776797,-0.016623909382274246,-0.016622398994708097,-0.016701275087571008,-0.016915302015984963,-0.01726142898596829,-0.017683529021634052,-0.018141973024691945,-0.01852343755271361,-0.018748884111790702,-0.01880038816583807,-0.01874314866099385,-0.01874479534816366,-0.018979025732082377,-0.01956892574263895,-0.020549686534055,-0.02184267051854361,-0.0232435081511845,-0.024521784347093727,-0.025381171905082014,-0.025568717805700417,-0.02494219237609337,-0.02345402384762851,-0.02134310332380786,-0.018897764723515377,-0.016441174464595285,-0.01423665707380752,-0.012522272960474706,-0.011091490302204686,-0.009519733125699752,-0.007206429180736849,-0.0035311217715216702,0.0016634957790148557,0.008837047782100746,0.01801688350409444,0.02890324417510643,0.04087025572483455,0.05279326393551074,0.06388039826653172,0.07332339509950445,0.08054503185767786,0.08527163322119077,0.08737994490400473,0.08736107909932975,0.08586955947438235,0.08366996620933193,0.08146967630534159,0.07964510620649685,0.07850541717793294,0.07801192491107065,0.07787856722145672,0.07766771938949242,0.0768471636164688,0.07514973821102602,0.07252651862704565,0.06920248741975459,0.06560784545097734,0.0621631248496365,0.0593007309454654,0.057154809298332596,0.0554651298755412,0.053547971512462225,0.05032775404711859,0.04474601859721027,0.03594775856601702,0.023627855881914375,0.00829262263412817,-0.0087035363909074,-0.0249108649614805,-0.03721957909882845,-0.04225734968714587,-0.03696272624420589,-0.019319023355217464,0.011524458513383636,0.0546747226906246,0.10749905036708234,0.16586177977820835,0.22447896056548644,0.27811690827414953,0.322040908831643,0.35279729431487034,0.36868628580062257,0.3697371592669899,0.3581116313211695,0.3372174391014455,0.31113318236798915,0.2838502700754435,0.25841869507288023,0.2370506181312003,0.2204898064869657,0.2082601463387793,0.19901425435026443,0.0,0.0,0.0,0.0,0.0,0.0,0.0,0.0,0.0,0.0,0.0,0.0,0.0,0.0,0.0,0.0,0.0,0.0,0.0,0.0,0.0,0.0,0.0,0.0,0.0,0.0,0.0,0.0,0.0,0.0,0.0,0.0,0.0,0.0,0.0,0.0,0.0,0.0,0.0,0.0,0.0,0.0,0.0,0.0,0.0,0.0,0.0,0.0,0.0,0.0,0.0,0.0
0.5205446172423769,0.5251380314899602,0.51240112065736,0.48738744101969594,0.4558893992245759,0.42333597620140545,0.39366202775912534,0.36939123460697326,0.35098299223824886,0.33728332824406265,0.3261273351604341,0.31487918309073554,0.3017389394094649,0.2856665054710244,0.26671816205906035,0.24591139695127673,0.224699243987429,0.20498087619329736,0.18818670783202762,0.1750922096073431,0.1656954587421194,0.159189744220517,0.15457713150012872,0.15064006673034594,0.1463765043859683,0.14123859509095665,0.1351504619374038,0.12874292157804598,0.12290717464656471,0.11863881984145765,0.11678173143979394,0.11775822421381558,0.12164034597649231,0.12794771256907622,0.13581951664817143,0.14421264365815753,0.15212448638128628,0.1588502866605196,0.16413102907171,0.16818857690642422,0.17164355587652114,0.17535943609733595,0.1800807614174591,0.18638200720817816,0.1944065429402261,0.20377929032860062,0.2135177395865282,0.22269907714612105,0.23010136153936747,0.2347015321638858,0.2359150247806801,0.23342012414926164,0.22825010302978674,0.22123382117599738,0.21331006561412594,0.20534899421141872,0.1977263372842375,0.19117195601914538,0.18553981796434432,0.1803115093917865,0.17478296364215734,0.16805307235486105,0.16002618078056408,0.15055740947391108,0.13983811738719165,0.12836909649245096,0.11666429146587597,0.10574051398506738,0.09617797026281516,0.08826296647615725,0.08195522934274459,0.07678976677223458,0.07248027934425987,0.06849997872573273,0.0644108360706013,0.05997447563021412,0.05507057714268861,0.050097160188922615,0.04539476097051899,0.04129024184689869,0.03799372191768366,0.03542659521716234,0.03358155400418534,0.03216686177128644,0.030840408629081738,0.029326181974720335,0.02739071246979034,0.025284436308441925,0.02325077910235125,0.021609131515453066,0.02065864203175701,0.02046053754716474,0.021215205595384926,0.022732805347456274,0.02467282576398966,0.026655297321167136,0.02823858526253477,0.029510949445454685,0.030519601530449098,0.031466084285575964,0.03265195261057727,0.03423327204019034,0.0366919906300055,0.040072857129148425,0.04420806821599691,0.04876529829970804,0.05318405615032659,0.057283219728447174,0.06072161685354405,0.06327533130098309,0.06487864398883882,0.06549174042076047,0.06553035925017196,0.0652570661084355,0.06490816454734173,0.06465262206226963,0.06443798081479625,0.06442352081020151,0.06451964736470611,0.06457567224950242,0.06442660013570041,0.0638114787670324,0.06281631109765758,0.06148549743255301,0.05993330830287729,0.058312338612801315,0.0566493726331739,0.05518438823970838,0.05398204346670898,0.0530208092444892,0.05219807708990223,0.0512425679250712,0.05011144628347915,0.04872416336880846,0.047078499891386016,0.04525368838744793,0.043294925030218305,0.04146751926602559,0.03995639904894403,0.03889064800109303,0.03830929968499363,0.03807656060660842,0.03812975764742449,0.03832088407031027,0.03851514333071462,0.03862624640111956,0.038625508617535116,0.03857634372361827,0.03855687967307163,0.03865514859074561,0.03894319311724548,0.0395130460146929,0.04030997473112849,0.04122084976194157,0.04209800745611668,0.042815972779129845,0.04305290154945332,0.043178610115913584,0.04354670777460911,0.04459228004367822,0.046688752441014204,0.049395564236441473,0.05322868433914576,0.05816639816419004,0.06402665884855645,0.07046644302395602,0.07647705367473877,0.08204422238606376,0.08692470051385473,0.09099951877789761,0.09424413360689782,0.09624032501460199,0.09750133372003636,0.09834851918959973,0.09914085859524377,0.10017862429911109,0.10126666386444451,0.10265818398698065,0.10418651110914641,0.10549828008185827,0.10611311499132434,0.10531627826746716,0.1029924350579658,0.0991814252468505,0.09428305280579458,0.08898171329151257,0.08386858075952247,0.0797268139734065,0.07676762743621293,0.07453781871845325,0.07185031159170081,0.0667908931935647,0.057532900094467467,0.04251108157389189,0.02112408527944081,-0.005758540796537535,-0.03567639934817023,-0.06415613152605286,-0.08556533383826978,-0.09380720775421698,-0.08336739318477589,-0.05057938305123852,0.0059830702444346705,0.08452031735369439,0.18009163115008128,0.28513876714497033,0.39030701117058353,0.48644571995363095,0.5655267275911346,0.6220170403921449,0.6536449274747166,0.6613132283912198,0.64936736151416,0.623980213664821,0.5919956226244487,0.559575261563581,0.5308758038412996,0.5081853510323218,0.49127273285339096,0.4780659237571498,0.4655055956524453,0.4502895809587792,0.4304506218825796,0.4052394035056287,0.3754232655662201,0.3429884099169189,0.3103638514408571,0.28034601992327535,0.25491530662759115,0.23501836931279255,0.2204712241813926,0.2099913090729826,0.20209155671479237,0.19506066316814794,0.18755307556850404,0.1788827021785014,0.16900051361569518,0.15877192152702405,0.14932968346194095,0.1418624562833343,0.13729418017561026,0.13597060712693407,0.13782508819160752,0.14215313133933746,0.14789045184317337,0.15388501814999028,0.15915504050295676,0.16318885086550275,0.0,0.0,0.0,0.0,0.0,0.0,0.0,0.0,0.0,0.0,0.0,0.0,0.0,0.0,0.0,0.0,0.0,0.0,0.0,0.0,0.0,0.0,0.0,0.0,0.0,0.0,0.0,0.0,0.0,0.0,0.0,0.0,0.0,0.0,0.0,0.0,0.0,0.0,0.0,0.0,0.0,0.0,0.0,0.0,0.0,0.0,0.0,0.0,0.0,0.0,0.0,0.0
0.48644571995363095,0.5655267275911346,0.6220170403921449,0.6536449274747166,0.6613132283912198,0.64936736151416,0.623980213664821,0.5919956226244487,0.559575261563581,0.5308758038412996,0.5081853510323218,0.49127273285339096,0.4780659237571498,0.4655055956524453,0.4502895809587792,0.4304506218825796,0.4052394035056287,0.3754232655662201,0.3429884099169189,0.3103638514408571,0.28034601992327535,0.25491530662759115,0.23501836931279255,0.2204712241813926,0.2099913090729826,0.20209155671479237,0.19506066316814794,0.18755307556850404,0.1788827021785014,0.16900051361569518,0.15877192152702405,0.14932968346194095,0.1418624562833343,0.13729418017561026,0.13597060712693407,0.13782508819160752,0.14215313133933746,0.14789045184317337,0.15388501814999028,0.15915504050295676,0.16318885086550275,0.16600705576663013,0.1681425176559397,0.17047585612437033,0.17400739228053966,0.17946069423484348,0.18722488828244574,0.19714443079882502,0.2085086906322104,0.2200153376477713,0.23063506497573105,0.23911590241555059,0.2445430232999223,0.24654152514005045,0.2449702788250887,0.24118936437602237,0.23610357000371998,0.23057930555639652,0.2252930967378736,0.2203087711919728,0.21620297966174748,0.21258633644463207,0.20878026123249183,0.2040446683356968,0.19753439732972136,0.189444850997094,0.17981889373564836,0.16899592129311816,0.1575577868224867,0.14600996603152588,0.1353467240912452,0.12597174605203915,0.11795646723084684,0.11107090530927662,0.10475812934331098,0.09873925536496649,0.09255841499175964,0.08592159347143655,0.07878072490844122,0.07124407136166766,0.0638746732849447,0.05709713941642413,0.051247711593045926,0.04649054450760583,0.04271149059849051,0.03980265059027977,0.037381446529345976,0.03503342576349954,0.032441333872165766,0.029406594568719087,0.026176081708302146,0.02302203157917655,0.020307781650746145,0.018392123236725705,0.017449789325433424,0.017712924003054825,0.0190203316271364,0.02101736489736283,0.023257500708280903,0.025208700733329422,0.026765710361854846,0.02775981873755144,0.02817285476978789,0.028122878179836105,0.027675299625649987,0.02729126944216347,0.027102573513285544,0.027127653360189963,0.027297410481732707,0.02735985679925504,0.027426376490839,0.027370031433402026,0.02707637231316461,0.026471942783629313,0.025399822465974716,0.02411086669146115,0.02265346370600497,0.021078985273638988,0.019449445040192873,0.01771200497193067,0.01612554323274358,0.014733659184929731,0.01352293049183599,0.012426947296756434,0.011228682813157607,0.009970638740085915,0.008572648681144027,0.0069976979452910475,0.005273709918321427,0.00335880435103312,0.0015471579902531128,9.125907231300763e-06,-0.0011388713647535122,-0.0018795274601135787,-0.002466968614347036,-0.0029280018450929266,-0.003425539215065232,-0.004085310762883557,-0.004951038877363637,-0.006086245654150258,-0.007211964239829933,-0.008069208738110463,-0.008400017272874885,-0.008022550294613698,-0.006974426439534491,-0.0052604824720914505,-0.0030536851373181547,-0.000584391970691676,0.001918966842142286,0.004205504816430414,0.006272279820883921,0.008159662276373965,0.0099787435953614,0.01186048397889827,0.01383769314017738,0.016017215109602682,0.018381830950299317,0.020859544983852056,0.02335498211901086,0.025706265984013904,0.02796238903435639,0.030173861524222842,0.03243612745665676,0.034849480259123454,0.03737939985558586,0.04011136618711765,0.04299163184237188,0.045910278929463165,0.048739331611200205,0.051174080706995764,0.05343951872740563,0.055809975489966135,0.05871130365706957,0.06262918296327696,0.06764933538081153,0.07434251189970904,0.0828852712375155,0.09316154464195864,0.1046986248416645,0.11639511541563458,0.1274194404221909,0.13673302230798692,0.14340736823789801,0.14676806672005205,0.1462955483939403,0.14231040781854962,0.13548618568566473,0.12685035039135248,0.11758583860618187,0.10862354217304158,0.1009490329804552,0.09506483118200644,0.091013848085612,0.08840361049231168,0.08639049343367694,0.08429060459307156,0.08149648372672305,0.07772115986024346,0.07307482610445215,0.06789551449068432,0.06303079817700283,0.05932354031513941,0.05745644702261327,0.05774604171659259,0.05989242998180615,0.06340794178898317,0.06744430181180305,0.07111934215120093,0.07379638535854426,0.07516157736811345,0.07591814900422522,0.07736644498764834,0.08133788871425458,0.08984672900049596,0.10442769537392235,0.12634247902444856,0.15568669512265176,0.19133707561877952,0.23097581093329822,0.2711226266630704,0.3083255262418926,0.33915119932756815,0.36091395540161225,0.37210489286610043,0.372349616866663,0.36314111033111074,0.34688690975119185,0.3265974549308495,0.30530248356544654,0.285273778671589,0.2683886783189835,0.2552920458048952,0.24566767218414942,0.2385000742647926,0.23222788767460759,0.22584596691221356,0.21851324660177776,0.20993688807086153,0.20037527431918697,0.19033157220083946,0.18085103703281505,0.17273372135202925,0.16649406968974584,0.1622504743735813,0.15961969559586403,0.15816652417112026,0.15720706276710913,0.15611404233083404,0.0,0.0,0.0,0.0,0.0,0.0,0.0,0.0,0.0,0.0,0.0,0.0,0.0,0.0,0.0,0.0,0.0,0.0,0.0,0.0,0.0,0.0,0.0,0.0,0.0,0.0,0.0,0.0,0.0,0.0,0.0,0.0,0.0,0.0,0.0,0.0,0.0,0.0,0.0,0.0,0.0,0.0,0.0,0.0,0.0,0.0,0.0,0.0,0.0,0.0,0.0,0.0
0.36758206714151026,0.46969461934804,0.5536881036734341,0.6132144797487307,0.6453903472294864,0.6509897585973083,0.6343471621879678,0.6020946009225299,0.5618065923335259,0.5205071579582388,0.4833376537616841,0.45309876675435823,0.42992762443403015,0.41183849521698823,0.3956239686869913,0.37784227991110503,0.35601207992838974,0.32904092539832325,0.2974510660202948,0.26310764606952003,0.22858599909161337,0.1965702555120792,0.16909747113083726,0.14716034883025317,0.13059132345204882,0.11824852543337422,0.10843070475440562,0.09937089690411682,0.08969916081048365,0.07875007585607215,0.06668057752996184,0.054277027915129235,0.04274073068997019,0.03330791727264855,0.02690882826009547,0.0239765191598698,0.02420976864931006,0.026801639262455046,0.030619833921703882,0.034508179810591615,0.03766318231266104,0.03958757248395131,0.04046136106055116,0.04097266550446747,0.04210753136108775,0.04497212514201065,0.050130221274136445,0.057821540193338995,0.06772088399268153,0.07898102358555678,0.09030943136079597,0.10062894851326147,0.1087689660387062,0.11393244441168639,0.1158545158100258,0.11451845669199211,0.11122250023390785,0.10677845983401797,0.10192616967678124,0.09723293278917666,0.09277321414250617,0.08908699472193927,0.0858771641674207,0.08259334953122571,0.07861134976832752,0.0732030656157073,0.06646627716438426,0.05836275951648897,0.049119112894621175,0.03921061926193635,0.0291289271154037,0.019794102455350626,0.011699499727005548,0.0050633427770711845,-0.0001901112444548215,-0.0044647857000699705,-0.00808307309254547,-0.011530759650427625,-0.015192722156725407,-0.019250243243373447,-0.023700687216618783,-0.02818730702338238,-0.03233547346035243,-0.03578800182476143,-0.038310375242292076,-0.03988759042749411,-0.04062804166794927,-0.040822076606345084,-0.040815729892157294,-0.040906783745982785,-0.041292650485952494,-0.041927752275088756,-0.04266086080911266,-0.04326068038845159,-0.04350319224967349,-0.04328327953532528,-0.04255503017929759,-0.04145801833168553,-0.04022038030475955,-0.03907231376790497,-0.03821014849716239,-0.03754444998163431,-0.03691743711525458,-0.03605596843009727,-0.03464143528613646,-0.032474810248741715,-0.02928564482851696,-0.025117049230997095,-0.020205122057998563,-0.014922335980483523,-0.00976371742456463,-0.005003941464488185,-0.0009239015681570968,0.0023375541721098445,0.0047967633251694165,0.006534091608047075,0.007875220930508804,0.009063576021407302,0.01029160224246549,0.01166489464266624,0.01312465912858101,0.014667661855571413,0.0161730812637,0.017501506714021592,0.018533025960163062,0.01913449774052276,0.019360368621199785,0.01930814726233059,0.019124387326165525,0.018958962857414025,0.018858548284004985,0.018899592836376797,0.019067121869980948,0.019275639777662685,0.01938489975466499,0.019176428717810806,0.018546347302224965,0.017472100703850933,0.016031513456577908,0.014384514930920356,0.012692047928227673,0.011178460261354257,0.010047580879939537,0.009436532480515968,0.009384130107175722,0.009795081019359326,0.010529364821259473,0.011437559194305252,0.012387010514508396,0.013286857435421053,0.014116614531075603,0.014855230119693422,0.015561573813188859,0.016315468709155012,0.01718958476366638,0.018290280609561598,0.01953988339797015,0.020872709446112067,0.022196893261548025,0.023427523329193473,0.024210666306928752,0.024884286464012497,0.025774854749438934,0.02726931852864822,0.029665461894720562,0.0323434578817547,0.03577310435054659,0.03994702614592924,0.04477037312449359,0.05004007857243317,0.05484911593978544,0.05935511642336674,0.06346746660891826,0.06716053496350322,0.07041469525014578,0.07269160244373847,0.07436132890465579,0.07561529454629992,0.07672473881088179,0.0779662407731095,0.07916421300207414,0.0806608527560268,0.08241788171734468,0.08418601562121085,0.08551778629607322,0.08562729812667205,0.0842521849121985,0.08127606179325121,0.07697467349969113,0.07199279953269525,0.06697392674527365,0.06291325179795114,0.06034317383097653,0.059161650690290536,0.058467812769317305,0.056440862160363356,0.05121878352121237,0.04101865759496679,0.024890905795987153,0.003310169383072312,-0.021650541530949897,-0.045646934524775466,-0.06293010098714474,-0.0670245583584418,-0.05184747400317268,-0.013170197934240324,0.051002836714436485,0.13917284040242,0.24632013534628755,0.3643615011465655,0.4829808516327337,0.5918049860533079,0.6815125050947081,0.7454413627671236,0.7805704762963035,0.7876048247661956,0.7712016416838761,0.7383648757575983,0.6970935665863518,0.654801447476728,0.6168152971153511,0.5861596346875142,0.5629562018343915,0.5450645590081717,0.5290324186571524,0.5110752811885109,0.488572944576136,0.4603127085278107,0.42682549938219916,0.3901266825557171,0.3529889425362131,0.31858708888740317,0.28940863959094554,0.2668873402803072,0.2512209464542817,0.24139435377320795,0.23585589107266694,0.23264675739603388,0.22997686242429602,0.2265878676468159,0.22186710894696202,0.21612281958878785,0.21014856116417577,0.2050526087318344,0.20195478883935003,0.2016410910057455,0.2045659486134366,0.21053311492490323,0.0,0.0,0.0,0.0,0.0,0.0,0.0,0.0,0.0,0.0,0.0,0.0,0.0,0.0,0.0,0.0,0.0,0.0,0.0,0.0,0.0,0.0,0.0,0.0,0.0,0.0,0.0,0.0,0.0,0.0,0.0,0.0,0.0,0.0,0.0,0.0,0.0,0.0,0.0,0.0,0.0,0.0,0.0,0.0,0.0,0.0,0.0,0.0,0.0,0.0,0.0,0.0
0.5918049860533079,0.6815125050947081,0.7454413627671236,0.7805704762963035,0.7876048247661956,0.7712016416838761,0.7383648757575983,0.6970935665863518,0.654801447476728,0.6168152971153511,0.5861596346875142,0.5629562018343915,0.5450645590081717,0.5290324186571524,0.5110752811885109,0.488572944576136,0.4603127085278107,0.42682549938219916,0.3901266825557171,0.3529889425362131,0.31858708888740317,0.28940863959094554,0.2668873402803072,0.2512209464542817,0.24139435377320795,0.23585589107266694,0.23264675739603388,0.22997686242429602,0.2265878676468159,0.22186710894696202,0.21612281958878785,0.21014856116417577,0.2050526087318344,0.20195478883935003,0.2016410910057455,0.2045659486134366,0.21053311492490323,0.21880069804118624,0.22823087463495323,0.23748370649562528,0.24537872380250222,0.251037698169113,0.25405031063266253,0.25450696043055643,0.25291163049303306,0.2500151201038772,0.24665957521147447,0.2435371186196106,0.2410268871623747,0.2388874344732143,0.23714417873914334,0.23515655664594323,0.23217383629955327,0.22754681389419298,0.22042638327747976,0.2115598960668218,0.20113744013099016,0.18954389205208985,0.1773454691926234,0.1648120880757664,0.15327830987630015,0.14315763840275514,0.1345233077970561,0.1271441244910538,0.12023133382489477,0.11382453241618873,0.10739772258093892,0.10054949522084253,0.09313973157833817,0.08506367623243433,0.07717575601778656,0.06998170364087108,0.06389577862240368,0.05913533866562251,0.05546691912551593,0.05292213643303581,0.051067656851139176,0.049413161828616936,0.04756390582561831,0.04514657352947455,0.042495409380480825,0.03986804225357563,0.03759978974984798,0.03599247298561412,0.03504210911532875,0.034975464750724286,0.03558217648052419,0.036515842298302854,0.03741687716830584,0.037847353128310404,0.03801678146897605,0.03805529908126281,0.03822452232169703,0.03884128135099757,0.03997994355196568,0.04208313288843086,0.045100988403255104,0.04878286586831988,0.05275622485059469,0.056435132171376315,0.05978944471821763,0.06262896691513262,0.06489716972351785,0.06667116835019181,0.06793690152586344,0.06917982679534043,0.07057543427822847,0.07220114006736707,0.07403331888987358,0.07580631084361428,0.0775902013181717,0.07921664488174385,0.0805232951781586,0.08139546942955535,0.08166038555960267,0.08153325618300584,0.08112600746396074,0.08057530797108117,0.08001399847987724,0.0794182150407614,0.0789946409745638,0.07875822449217147,0.07866552485163335,0.07863252753019914,0.078441082481242,0.0781393036893994,0.07771003298348858,0.07717760339640176,0.07659653203247434,0.07590836004226077,0.07530305951361663,0.07485609793223463,0.07460953082997311,0.07456053653474953,0.07453358598230278,0.07458355196376541,0.07467503287559038,0.0747852597950914,0.0749031157213832,0.07493404705886599,0.0749683488111628,0.07502397619998828,0.07511438083438947,0.07524569490801687,0.07536762263011038,0.07553572563879221,0.07574832989737858,0.07599982571399334,0.0762810138909896,0.07654134536850264,0.07681600750584573,0.07706893632759254,0.07725214326645978,0.07731633287396233,0.07719742554480098,0.07692171881713691,0.07646387045190749,0.07581470030221654,0.0749989947914759,0.07402552123665962,0.07311901240336441,0.07246071221595993,0.07225190914851985,0.07268165670898946,0.07377777174897686,0.07571785544374655,0.07844265291568119,0.08176200642009208,0.08538012307405858,0.08875534462498756,0.09178422560273657,0.0943193642193468,0.09636648584180761,0.09807858943912769,0.09942841069371676,0.10100385835740001,0.10316766323797608,0.10615172247929491,0.1099502190972721,0.1140424188220743,0.11804884743038237,0.12121987678327582,0.1227273306619785,0.12182184875541649,0.11785382833603368,0.11084626334823741,0.10113797386926897,0.08948012713248303,0.07691439974347515,0.06448189587673189,0.053315304709442644,0.0441105429880772,0.03709584084968449,0.0320069507315338,0.02812426135068578,0.02465290657423974,0.020739613240137126,0.01579777913205795,0.009694820046859775,0.002779131883474667,-0.0040110832706429745,-0.00954862342572687,-0.012703899030151443,-0.012617310637814245,-0.008958546189573105,-0.0018834159257595704,0.00780264887512542,0.018903737644657397,0.030132845753354592,0.04037985249730052,0.04924078525885021,0.056923573717641035,0.06433248397909888,0.07288300214452341,0.08406407337631658,0.09934045233366097,0.11941843143593156,0.14405075191641942,0.1719308955894626,0.20068997697201973,0.2276407363316477,0.2498600143333191,0.2648452434748147,0.27097878903440176,0.2676709619676706,0.25591299444775406,0.23761313661588124,0.21535652957421375,0.19190243030880474,0.16955340953092285,0.15016474723527265,0.13449580994281554,0.12235761669472821,0.1128260715832077,0.10449514857553834,0.09619931533771184,0.08696677060177123,0.07637147917574748,0.06459655290536305,0.052291968140137084,0.040504522730356235,0.03019522478691103,0.022059579875605053,0.01636703422751839,0.012932754262275095,0.011177452078511207,0.010285438228689443,0.009447398351742462,0.0,0.0,0.0,0.0,0.0,0.0,0.0,0.0,0.0,0.0,0.0,0.0,0.0,0.0,0.0,0.0,0.0,0.0,0.0,0.0,0.0,0.0,0.0,0.0,0.0,0.0,0.0,0.0,0.0,0.0,0.0,0.0,0.0,0.0,0.0,0.0,0.0,0.0,0.0,0.0,0.0,0.0,0.0,0.0,0.0,0.0,0.0,0.0,0.0,0.0,0.0,0.0
-0.12080550075840368,-0.11294996937216245,-0.08267073705388901,-0.028775071775904465,0.04674374211355613,0.1388594459001838,0.24007517974004025,0.3412344493480208,0.43351044053465554,0.5092209376176436,0.5631223895996402,0.593100328852243,0.6000240727675362,0.5880748447071636,0.5631338757163359,0.5317238551773961,0.49974606724871884,0.4712016027029698,0.4484416037976744,0.43142089855588395,0.41833594478402447,0.40639180564519484,0.3924277446938284,0.3745539102813438,0.35191969121921785,0.3250748682828715,0.2957346863850823,0.2660257118173833,0.238631922420856,0.2155017269378677,0.19766168438266493,0.18507756712496984,0.17656108701170042,0.17081611747241016,0.16620455609729115,0.1613709965757908,0.15554373354356302,0.14845621061237446,0.14090309421867403,0.1339242075191807,0.12865695193461624,0.1260098999621562,0.12624035732800862,0.12939112776046804,0.13483676650675092,0.14160258465794107,0.14861884428558492,0.15485452416827117,0.15992299308676247,0.16390983449401905,0.16738706750011595,0.17122778860901364,0.17624740281767695,0.1831666569111356,0.19234397676595139,0.2036248760808918,0.216324581221646,0.22904939137277042,0.24089701892297735,0.2507182377315708,0.2576792062072861,0.2614213738342783,0.26160317880581707,0.25953824929270297,0.25606600504766147,0.2520273563237113,0.24811853895810754,0.244308246958122,0.2413778393721748,0.23915279182619545,0.23716698401733186,0.23481570408193675,0.23108125729377255,0.22616604865273646,0.22001034701772032,0.21282991463708167,0.20508107978593762,0.196968167067078,0.18957015347471134,0.18339715794668981,0.178683314864801,0.17534645548993852,0.17269211323893097,0.17057841968679394,0.1685465201623811,0.16625420774525707,0.163563591112442,0.16026102808465423,0.15697835460832585,0.15419193642524537,0.15235768007320044,0.1517807267349455,0.1522509993183206,0.1538869702719121,0.15638382628424988,0.15933464647920406,0.16233497989111484,0.1648110158777998,0.16693216017387716,0.16881080634061893,0.17069721757646625,0.17288923304728415,0.17537002943894694,0.17855879721497273,0.18244365427979992,0.18684240747701658,0.1914591177283859,0.1957046177578147,0.1996691703746435,0.20328801908628286,0.20665979843366927,0.21002900240948763,0.21344239263304482,0.21757020094630566,0.2226112464796536,0.2285414908573408,0.2351006299069316,0.24157561344266107,0.2477621846584187,0.25314846839814026,0.25734255101408887,0.26017225740437555,0.26147996552112684,0.26190617933032806,0.2619098703667308,0.2619272575830808,0.2622557810310721,0.26274702820180396,0.263548551730314,0.26434792051051803,0.2647359369126378,0.2643393046577687,0.26272189947577435,0.26014809635250113,0.25684746140588394,0.2531746971716031,0.24950336189336195,0.2458941886099345,0.2427324629156743,0.2399715710076016,0.23738952394827645,0.23466741912895517,0.23126116568621682,0.2272289502300937,0.22255958437321438,0.21740032699344528,0.21201346728138082,0.20649059223159522,0.20135399530177936,0.19678796750765346,0.19282576637981175,0.18935951543380647,0.18599302090896017,0.18274012803887144,0.1794157350326334,0.17590628140991657,0.1722015927487767,0.16821020337427386,0.16434558141087113,0.16079120791775398,0.15767573100038115,0.15504367006374695,0.15267179373431547,0.15068640557500326,0.14890751522463225,0.14713871532362416,0.14523552549898333,0.14255668494059645,0.13985298343815034,0.13752771339081366,0.13598026550421805,0.13542738093421974,0.13474315292497413,0.13458228862207627,0.13477269524430138,0.13512854806991473,0.13549648265528058,0.13486225743843372,0.13415765293529192,0.13378469541227503,0.13416254131261499,0.1355655843763414,0.13720716928922388,0.13969497969036818,0.14291575473700582,0.146711167358048,0.15090401595263306,0.15466398490908173,0.15837516097902068,0.16182588176872217,0.16463707235858147,0.16624244752892472,0.16553430974232466,0.16240659248241843,0.15667759967236353,0.14865901964262657,0.13921296622528137,0.12928650460119775,0.12072777003430321,0.11479775386015931,0.11207884319931581,0.1121834849216381,0.11344545364828448,0.11403463158361304,0.11165598293995846,0.10456334294792587,0.09233141630166491,0.07620040974781137,0.06011256646461323,0.04965555100260672,0.05154987814595507,0.07247934768169174,0.1174789209277632,0.18938805562773162,0.2871596862888513,0.40575636451806746,0.536564932131564,0.668273100814407,0.7894248986404775,0.8895317283067895,0.9610638971101653,1.0006505165814363,1.0091624849004153,0.9921585448920932,0.9577121516703259,0.9148723424864148,0.8717861267808168,0.8338662789365315,0.8038959750244262,0.7811368777893837,0.762323763584138,0.7429217369801973,0.7182506676715605,0.6856621738969564,0.6444096434311494,0.5960024281351449,0.5437041940474087,0.4913490966551128,0.4431680258615289,0.40206452906016826,0.3693173653238238,0.3444866511146201,0.32550186794722086,0.3100813031483591,0.2956828541035709,0.28039087371765137,0.2633224643300007,0.2445143586320824,0.0,0.0,0.0,0.0,0.0,0.0,0.0,0.0,0.0,0.0,0.0,0.0,0.0,0.0,0.0,0.0,0.0,0.0,0.0,0.0,0.0,0.0,0.0,0.0,0.0,0.0,0.0,0.0,0.0,0.0,0.0,0.0,0.0,0.0,0.0,0.0,0.0,0.0,0.0,0.0,0.0,0.0,0.0,0.0,0.0,0.0,0.0,0.0,0.0,0.0,0.0,0.0
0.7894248986404775,0.8895317283067895,0.9610638971101653,1.0006505165814363,1.0091624849004153,0.9921585448920932,0.9577121516703259,0.9148723424864148,0.8717861267808168,0.8338662789365315,0.8038959750244262,0.7811368777893837,0.762323763584138,0.7429217369801973,0.7182506676715605,0.6856621738969564,0.6444096434311494,0.5960024281351449,0.5437041940474087,0.4913490966551128,0.4431680258615289,0.40206452906016826,0.3693173653238238,0.3444866511146201,0.32550186794722086,0.3100813031483591,0.2956828541035709,0.28039087371765137,0.2633224643300007,0.2445143586320824,0.22537192587922658,0.20758215732956198,0.19279553733916174,0.1821582775453813,0.1758475971508931,0.17353696119953907,0.1740387415330175,0.17581654891432708,0.17741414366733535,0.17770231099449446,0.17658515472983638,0.17458941662454466,0.17282901177645513,0.17267000978928937,0.1752070815226683,0.1812918744016747,0.19093840058754338,0.20340797668878638,0.2173739934505358,0.23087851735868437,0.24297337230489977,0.25249278816121384,0.25883758394345435,0.2620779771117822,0.2622879448226995,0.26147619110924203,0.2605535596453696,0.2601035645991748,0.2603302892305502,0.2605712851992269,0.2612759100610944,0.26172291161296984,0.2610660138914384,0.25858260134931815,0.2534209852257932,0.24633018109860952,0.23759050288175346,0.22769366502874097,0.21728408724320658,0.2067069032770291,0.19713189027026817,0.1888797492217923,0.1819293178632936,0.17598557313709504,0.1703526297546985,0.1649490578021153,0.1593842914566768,0.1534197184984913,0.14703306170274288,0.1401443916206286,0.13346087546095636,0.12738342737552455,0.12221449403282099,0.11808055026839075,0.11460807451233938,0.11189528368908797,0.10966088710581706,0.10760949831533057,0.10550884643066016,0.10290049173755252,0.10016753150399027,0.09748585196128035,0.0950408210396724,0.0929371425929296,0.09076220066391244,0.08876437772898514,0.08681005704161968,0.08477006448314711,0.08257987201598617,0.07987554286610213,0.077241521180475,0.0749555259426681,0.07325135715242105,0.07222260143904272,0.07135201938601465,0.0708585177106141,0.07047089095055781,0.06993640897118554,0.0691252017290342,0.06769250670163994,0.06632916200957979,0.06541778771521682,0.0652773284314336,0.0660278020190257,0.06713961905372134,0.0686492662688295,0.07007011037075025,0.07094135494475148,0.07102236261927197,0.07009965074313282,0.06912193996285972,0.06905500838954975,0.07101618421145624,0.07601692321951825,0.08440014850630351,0.09662774846817054,0.11227487472660513,0.13037334281365226,0.149593821809386,0.1682833619640566,0.1854697620474641,0.20038801889061786,0.21283461696715214,0.22317072039925373,0.23204592134543392,0.2406278829418901,0.2498293487490934,0.2602043885486983,0.2717867369285856,0.2839823118372215,0.2959818169552209,0.3066651847817781,0.3150165952552175,0.3204027534579175,0.32271808704071614,0.322506134425719,0.32062621538143293,0.3180786341720759,0.3157339444956551,0.31412877281916485,0.3133565668447534,0.31302501072806765,0.3124812503046663,0.3110651355333928,0.3083935568154898,0.30437096358601795,0.2992099666304456,0.29335105789930727,0.28731016391944664,0.2814426300406738,0.2761190811969585,0.2714181657857656,0.2672705498067891,0.2635551923055004,0.25997365047526316,0.25677597337213354,0.2541500835086483,0.25228138417702267,0.25120435572337646,0.25047438023529184,0.24972079258633503,0.2481464629641069,0.24481644868165062,0.2388535191412525,0.22947429097204897,0.21670515074902882,0.20095883153566882,0.18312854762248393,0.16441547986239272,0.14589400817234618,0.128838531606914,0.11387924113681784,0.10108276667714372,0.08997744058353296,0.07952459475835227,0.06902689642062833,0.05767682130143706,0.045059027951198684,0.031297244164749806,0.016806227264282766,0.0028946481075596653,-0.009444944449542983,-0.01956113410963006,-0.02738295225403337,-0.03376796144829827,-0.0394451903142293,-0.04575924822876983,-0.05386368617959037,-0.06425286121129481,-0.07675552980630007,-0.08934026908478145,-0.0995027826404568,-0.10433401529418579,-0.10112277016855628,-0.0883628943400514,-0.06496596683578446,-0.03181291966366511,0.008729567022128371,0.053173730048510476,0.09708965723206277,0.13703416190905934,0.16986279921121977,0.19356532580020167,0.2074702302655772,0.21180445533014838,0.20871151768304227,0.2005813467802034,0.18996573285304347,0.17913249689403482,0.16937769481022824,0.16194474238817952,0.15688056686056132,0.1535281898369659,0.15079476352249238,0.14719160611450066,0.14209934810251684,0.13502519782759012,0.126038233339857,0.11575574439702056,0.10499743313460724,0.09520046740191798,0.08746873572169508,0.08255441032416463,0.08071672527154874,0.08158637076918253,0.08461723597708931,0.08889210377835813,0.09347010366120166,0.09761440507985025,0.10092576394441219,0.10356446324885132,0.10609426024009276,0.1094048709087085,0.11451208488815177,0.1223418174224547,0.13340218184847621,0.1477064876003583,0.16466943195829506,0.0,0.0,0.0,0.0,0.0,0.0,0.0,0.0,0.0,0.0,0.0,0.0,0.0,0.0,0.0,0.0,0.0,0.0,0.0,0.0,0.0,0.0,0.0,0.0,0.0,0.0,0.0,0.0,0.0,0.0,0.0,0.0,0.0,0.0,0.0,0.0,0.0,0.0,0.0,0.0,0.0,0.0,0.0,0.0,0.0,0.0,0.0,0.0,0.0,0.0,0.0,0.0
0.18996573285304347,0.17913249689403482,0.16937769481022824,0.16194474238817952,0.15688056686056132,0.1535281898369659,0.15079476352249238,0.14719160611450066,0.14209934810251684,0.13502519782759012,0.126038233339857,0.11575574439702056,0.10499743313460724,0.09520046740191798,0.08746873572169508,0.08255441032416463,0.08071672527154874,0.08158637076918253,0.08461723597708931,0.08889210377835813,0.09347010366120166,0.09761440507985025,0.10092576394441219,0.10356446324885132,0.10609426024009276,0.1094048709087085,0.11451208488815177,0.1223418174224547,0.13340218184847621,0.1477064876003583,0.16466943195829506,0.18316842674182912,0.20179545250850944,0.21894475994577722,0.23335852316878475,0.2443247157564778,0.2518247685955065,0.25660360981829144,0.2596646058048601,0.26229648982420434,0.26558698715839696,0.27010279325290226,0.27573847025460235,0.28169823919081827,0.28668788942936113,0.28929443622540324,0.28838081791029807,0.28335349640559415,0.27453588573291793,0.2627165065894103,0.2491039565480049,0.23503573460925967,0.22163822037986594,0.20974612937049464,0.1994653661048421,0.19036571417729778,0.18169065130822126,0.1726189002508711,0.16262413618483137,0.1514013156553837,0.1390384265854733,0.12597578851839675,0.11288980737828512,0.10048687597497165,0.08920807792878524,0.07918912789257677,0.07026092572857226,0.06209086054003011,0.054182217545741346,0.0460399495009043,0.03733482268864374,0.028006192444789583,0.0183382611288403,0.008801522477306572,-9.174691113454344e-05,-0.007878687656079209,-0.014248540838993093,-0.019065945232673506,-0.02245414550992499,-0.02481962918264313,-0.026688931776954413,-0.0285616249082442,-0.030785431455763502,-0.033396220226302356,-0.036384065957383874,-0.039611807358008295,-0.042874708977495325,-0.04602129827971849,-0.04876840735351676,-0.0511922078711024,-0.05349202507143742,-0.05588446315576029,-0.058569486006512905,-0.061334485695632206,-0.06409096971600799,-0.06667800192433652,-0.06889421733402526,-0.07064670644102065,-0.07159452387039844,-0.07181071546076535,-0.07151644202396261,-0.07100368298178426,-0.07065101111605547,-0.07048869106683416,-0.07072980822311987,-0.07155766715638433,-0.0731131486295433,-0.07557798597276455,-0.07880876876658341,-0.08278612271570354,-0.08741153934670563,-0.09247207638461873,-0.0976910670082836,-0.10255329347533115,-0.106682679844002,-0.10981046327608557,-0.11183100413969416,-0.11283800868955648,-0.11302421598445753,-0.11274927567762412,-0.11238490112144178,-0.11220847074071333,-0.1124979477863061,-0.1129991491740677,-0.11340183195037544,-0.11334923245507866,-0.11258593734173251,-0.11139455697774277,-0.10967445518597702,-0.10760472436262414,-0.10540078025002242,-0.10324791770292843,-0.10160599380986206,-0.10015808876730274,-0.0986038230294873,-0.09659857849782302,-0.09390989806412436,-0.09091840126325451,-0.08752928078570803,-0.08391672373210389,-0.0802631547419148,-0.0767018442805755,-0.07354866894725554,-0.07054061618235904,-0.0673933678665862,-0.06378833046087705,-0.05949379049702663,-0.054596463841588144,-0.049112976848821085,-0.043175638384667724,-0.03693590077287302,-0.0305267859990523,-0.024154093314918586,-0.017885589052382283,-0.011833565165060012,-0.00624224474347525,-0.001559781501077953,0.0015259239825234196,0.0022906171988665166,0.00019003131548506414,-0.004918682718013562,-0.01255589616742937,-0.021522162620351074,-0.029823354655186183,-0.03481153332116688,-0.03359543109923199,-0.023552010833780782,-0.002909008914291343,0.028861108866849526,0.07084719244770493,0.12063587348340855,0.1745869266379661,0.22830539187341295,0.27755481481366856,0.31900016976574347,0.3507684762757476,0.3727258641097129,0.38626364610202873,0.39413889558018217,0.3996446539851701,0.40574791284454026,0.41431372662765703,0.42548299218727714,0.4379623254834244,0.4492213606324226,0.45616106422586516,0.4559015891456012,0.44635853125356034,0.42715907594522423,0.3995618849252877,0.3662062985499588,0.3305056103684451,0.2957628105637211,0.26481251272078143,0.2393460407133105,0.21972937439766038,0.20510963159128895,0.19368766969007983,0.18352571738582843,0.17294229582072268,0.16093051435357134,0.14733373340758246,0.13269795363704018,0.11827840378163999,0.10551774999750228,0.0956862490605301,0.08955783522387599,0.08715363823160001,0.08797746146556587,0.0910101077552835,0.09502787621669763,0.09891067431519499,0.1018485484125292,0.10367664169602828,0.10477659181909772,0.1059687227051301,0.10826351340651397,0.11252553940348181,0.11932338231573546,0.1287030144970034,0.14015962419222264,0.1527390288645405,0.1651130862095067,0.17634830219017433,0.18560207263204861,0.19250231676406812,0.19721454432256705,0.20012315040070117,0.20250565638106938,0.20520037555083612,0.20875438931022053,0.21329191088489394,0.2182162204650457,0.22325749006815993,0.2274417312888827,0.22974739899159646,0.2293692774472208,0.22562193414713255,0.21910130201661182,0.2103348190956497,0.20012986289778026,0.189423364820963,0.17886560007291832,0.16948737317812693,0.16158505723662997,0.15505256465664569,0.1494774521947052,0.1441229610360676,0.0,0.0,0.0,0.0,0.0,0.0,0.0,0.0,0.0,0.0,0.0,0.0,0.0,0.0,0.0,0.0,0.0,0.0,0.0,0.0,0.0,0.0,0.0,0.0,0.0,0.0,0.0,0.0,0.0,0.0,0.0,0.0,0.0,0.0,0.0,0.0,0.0,0.0,0.0,0.0,0.0,0.0,0.0,0.0,0.0,0.0,0.0,0.0,0.0,0.0,0.0,0.0
0.38626364610202873,0.39413889558018217,0.3996446539851701,0.40574791284454026,0.41431372662765703,0.42548299218727714,0.4379623254834244,0.4492213606324226,0.45616106422586516,0.4559015891456012,0.44635853125356034,0.42715907594522423,0.3995618849252877,0.3662062985499588,0.3305056103684451,0.2957628105637211,0.26481251272078143,0.2393460407133105,0.21972937439766038,0.20510963159128895,0.19368766969007983,0.18352571738582843,0.17294229582072268,0.16093051435357134,0.14733373340758246,0.13269795363704018,0.11827840378163999,0.10551774999750228,0.0956862490605301,0.08955783522387599,0.08715363823160001,0.08797746146556587,0.0910101077552835,0.09502787621669763,0.09891067431519499,0.1018485484125292,0.10367664169602828,0.10477659181909772,0.1059687227051301,0.10826351340651397,0.11252553940348181,0.11932338231573546,0.1287030144970034,0.14015962419222264,0.1527390288645405,0.1651130862095067,0.17634830219017433,0.18560207263204861,0.19250231676406812,0.19721454432256705,0.20012315040070117,0.20250565638106938,0.20520037555083612,0.20875438931022053,0.21329191088489394,0.2182162204650457,0.22325749006815993,0.2274417312888827,0.22974739899159646,0.2293692774472208,0.22562193414713255,0.21910130201661182,0.2103348190956497,0.20012986289778026,0.189423364820963,0.17886560007291832,0.16948737317812693,0.16158505723662997,0.15505256465664569,0.1494774521947052,0.1441229610360676,0.13870113058978875,0.1328327335578107,0.12636830218558204,0.1194148775241832,0.1121427162512423,0.10517175096887878,0.09890911112086717,0.09361650218350216,0.08935230285366119,0.08585481292074335,0.08297448405096773,0.08037453395006863,0.077751028722726,0.07491527617125418,0.07172033281552434,0.06843970832623654,0.06531331800403188,0.06259631238466433,0.06047824948884715,0.05890578892948049,0.05795194021777131,0.05742366168240922,0.05706093825175096,0.05662304837398689,0.055801738633254515,0.05481632366082288,0.053823268283765074,0.0530590962112306,0.052767847259126636,0.05291011180934,0.053814776216233214,0.05540095307650644,0.0574503354987801,0.059674925927463374,0.06155352490362151,0.0632024605268434,0.06456011824457696,0.06565593777615415,0.0665820045958001,0.06717505674133305,0.06787269274071098,0.06874554732585325,0.06979047610342641,0.07094954900312817,0.07188550381042319,0.07282348490870706,0.0737297748976624,0.07457222136841231,0.0753170934104562,0.07569714827845152,0.0759521590752083,0.07610960466053694,0.0762118279345304,0.07631409917227827,0.07630817861721509,0.07642714598806655,0.07668464413713093,0.07702253015166415,0.07731110493410034,0.07727456256103798,0.07685154716288257,0.07590694945553736,0.0743984078324943,0.07242111233065587,0.06983253015622458,0.06742528534399515,0.06585540038259938,0.0657525839468787,0.06753111972721139,0.07055385071890924,0.07515698695847088,0.08105783993993759,0.08784206209527964,0.09502093819019654,0.1014737367375702,0.10736507630425998,0.1127045953952934,0.11767427097678829,0.12251075665318167,0.1268409972074553,0.13125108930418447,0.13595287968027137,0.1410855002368481,0.14666380361943876,0.15207967989114302,0.15746405001180164,0.1625851040386596,0.16714869229250753,0.1708168505856959,0.17289567166141798,0.17353670996006448,0.1729030366414494,0.17142928154923762,0.16973542696391938,0.16812187842260612,0.16735039639419064,0.16756911359786056,0.1683561024512071,0.1686540033421428,0.1665959765118668,0.16073165568670866,0.14973229567378268,0.13311564496927974,0.11167659437774594,0.08741556821035822,0.06443757121147203,0.047769558837482656,0.042871289193058444,0.054699185413349075,0.08639687262995978,0.13944629425753546,0.21232451479514353,0.3006668690150344,0.3977004498950653,0.49478722940580283,0.5837462664984835,0.6572678296212463,0.7102892345201227,0.7407017143767813,0.7491079543714371,0.7395944611838945,0.7178353937099259,0.6901279435420006,0.6621237561078572,0.6374224366426866,0.618211393657452,0.6042530435071933,0.5936327257354258,0.583545797838933,0.5708080246018521,0.5538175087156094,0.5319934601980375,0.5061316813538165,0.47808609346202374,0.4498465445937642,0.42400940458391334,0.4022360988707914,0.38521874094110703,0.3726263890851145,0.3629847546467551,0.3550919494348658,0.34749039477737703,0.339133557806471,0.3296105682719964,0.3188879361181561,0.3081108887544939,0.29843887895688276,0.29099919332386776,0.2865947474588784,0.2852418055226985,0.2869549252547954,0.290994410869756,0.2963129694964816,0.3018151874549562,0.3063985803319417,0.3098575305029448,0.3123220691950286,0.314406600264677,0.31703562745103403,0.3210043149975323,0.3272487997967416,0.3361301388059412,0.3474276263321012,0.3603308765598859,0.37322543755058535,0.38515435196516423,0.3947669438454429,0.40106659232966435,0.4036261256687378,0.4021293301733036,0.398143292699859,0.3926702698888873,0.38668619341444527,0.3809623186929973,0.3754506888347823,0.3709409974536836,0.36705724891410435,0.0,0.0,0.0,0.0,0.0,0.0,0.0,0.0,0.0,0.0,0.0,0.0,0.0,0.0,0.0,0.0,0.0,0.0,0.0,0.0,0.0,0.0,0.0,0.0,0.0,0.0,0.0,0.0,0.0,0.0,0.0,0.0,0.0,0.0,0.0,0.0,0.0,0.0,0.0,0.0,0.0,0.0,0.0,0.0,0.0,0.0,0.0,0.0,0.0,0.0,0.0,0.0
0.5837462664984835,0.6572678296212463,0.7102892345201227,0.7407017143767813,0.7491079543714371,0.7395944611838945,0.7178353937099259,0.6901279435420006,0.6621237561078572,0.6374224366426866,0.618211393657452,0.6042530435071933,0.5936327257354258,0.583545797838933,0.5708080246018521,0.5538175087156094,0.5319934601980375,0.5061316813538165,0.47808609346202374,0.4498465445937642,0.42400940458391334,0.4022360988707914,0.38521874094110703,0.3726263890851145,0.3629847546467551,0.3550919494348658,0.34749039477737703,0.339133557806471,0.3296105682719964,0.3188879361181561,0.3081108887544939,0.29843887895688276,0.29099919332386776,0.2865947474588784,0.2852418055226985,0.2869549252547954,0.290994410869756,0.2963129694964816,0.3018151874549562,0.3063985803319417,0.3098575305029448,0.3123220691950286,0.314406600264677,0.31703562745103403,0.3210043149975323,0.3272487997967416,0.3361301388059412,0.3474276263321012,0.3603308765598859,0.37322543755058535,0.38515435196516423,0.3947669438454429,0.40106659232966435,0.4036261256687378,0.4021293301733036,0.398143292699859,0.3926702698888873,0.38668619341444527,0.3809623186929973,0.3754506888347823,0.3709409974536836,0.36705724891410435,0.3631024258550883,0.3582985117172568,0.35157546620378755,0.34330436955409416,0.3335359221298341,0.322618779461898,0.31113624461363226,0.2993943325572836,0.2885836032643825,0.2790960473529959,0.27097869030693394,0.26397397751000773,0.2573120319008275,0.25094004918534385,0.2444231512142854,0.2374803018689263,0.23006536299536276,0.2220923420654787,0.21433982495994977,0.2072366734042733,0.20111896422470932,0.19615674848071782,0.19207451009521995,0.18901788417046647,0.18664829883179607,0.18456333864808616,0.18241285245867853,0.17973472223750872,0.17686892775184518,0.1739401999175372,0.17114094621061032,0.16866895643663926,0.1664026058078922,0.1647527886117322,0.16361654581103166,0.1627677011857228,0.161945676612857,0.16063556194160072,0.15920800217001668,0.15772521034757966,0.1563324344079324,0.1552223967890747,0.15421163107774882,0.15392779013279237,0.1543718215928058,0.15538450208095175,0.15669997905831218,0.1576924075739076,0.15854192318921786,0.15901546717338835,0.1589276205020219,0.15817756132754962,0.15648812266687764,0.15436053138618339,0.1519229354867345,0.14930106133384077,0.14662181186293236,0.1437717585411286,0.14120787606389634,0.13895995603529676,0.13695907818740263,0.13506606239831512,0.13291428451796983,0.13064802924416571,0.12814502893078872,0.12534152757920106,0.12227362596264782,0.11884211982240099,0.11560827457152102,0.11285237280214283,0.11078399807097268,0.10948118952698051,0.10856258489832131,0.10814821338497195,0.10797008190870973,0.10774135800892985,0.10724837321791174,0.10604825694751752,0.10471463933002638,0.10370754835594555,0.10361494872523816,0.10501555690884297,0.10786394489132833,0.11282621031172675,0.11991837234813957,0.1288365429921617,0.13895758386979115,0.14899943145254138,0.15832276415011431,0.16595477806972503,0.1710295788499261,0.17289961083073932,0.1709242158021123,0.1655005411689467,0.15717378229511667,0.14684961265803953,0.1356638720106361,0.12452855485853027,0.11476740474875906,0.10710067060579638,0.10175531357531652,0.09842813319053287,0.09614293559607406,0.09417736790994652,0.09159786702031612,0.08776165532894134,0.08253425853330694,0.07617190632242272,0.06996938152804597,0.0653668676926224,0.06385666209530205,0.06664038387608101,0.0741250146580946,0.08641445561803253,0.1026470779692781,0.12136779522910028,0.1408454919556591,0.15921918935486346,0.17566351205327146,0.18992507293911307,0.20261289036327568,0.21505060003523718,0.2286432096615761,0.24531558561495911,0.2662193601160135,0.2915584029580269,0.3203684010008341,0.3502452055494728,0.3786055967767986,0.40235017654196426,0.4186905521696218,0.4256862019664309,0.4222913603477782,0.40949593781080623,0.38929478727557604,0.3645285369999601,0.3383107515813551,0.3131267806414025,0.291304263923085,0.27385872618763374,0.260720537780175,0.2509353011962792,0.24275155897215528,0.23495862097038364,0.22640729676544888,0.21653677413871678,0.2054522265764166,0.19359420187282161,0.1822137246694306,0.17236928271105434,0.1648484075980261,0.15996915195655395,0.15734795921625486,0.1565156628661051,0.1565940105512688,0.15670294118160272,0.1562057538551483,0.15474296885379532,0.15276470716853208,0.1510315685318079,0.15057403785907295,0.15244235575374263,0.15731681152998073,0.16567405395865445,0.17729761062567836,0.19139574163361803,0.2067411520179489,0.22175865284968943,0.23533895074766348,0.24655962833876854,0.25504888302019335,0.2610399482821552,0.26508323894046304,0.26847483312256437,0.2722268363588963,0.2770307097135026,0.28306567186110815,0.28968886251527554,0.2963839590859441,0.3019569718422381,0.3051770598630822,0.30509139544006114,0.3009582472953899,0.29342774025191265,0.28320173531950776,0.27131926373548976,0.0,0.0,0.0,0.0,0.0,0.0,0.0,0.0,0.0,0.0,0.0,0.0,0.0,0.0,0.0,0.0,0.0,0.0,0.0,0.0,0.0,0.0,0.0,0.0,0.0,0.0,0.0,0.0,0.0,0.0,0.0,0.0,0.0,0.0,0.0,0.0,0.0,0.0,0.0,0.0,0.0,0.0,0.0,0.0,0.0,0.0,0.0,0.0,0.0,0.0,0.0,0.0
0.4186905521696218,0.4256862019664309,0.4222913603477782,0.40949593781080623,0.38929478727557604,0.3645285369999601,0.3383107515813551,0.3131267806414025,0.291304263923085,0.27385872618763374,0.260720537780175,0.2509353011962792,0.24275155897215528,0.23495862097038364,0.22640729676544888,0.21653677413871678,0.2054522265764166,0.19359420187282161,0.1822137246694306,0.17236928271105434,0.1648484075980261,0.15996915195655395,0.15734795921625486,0.1565156628661051,0.1565940105512688,0.15670294118160272,0.1562057538551483,0.15474296885379532,0.15276470716853208,0.1510315685318079,0.15057403785907295,0.15244235575374263,0.15731681152998073,0.16567405395865445,0.17729761062567836,0.19139574163361803,0.2067411520179489,0.22175865284968943,0.23533895074766348,0.24655962833876854,0.25504888302019335,0.2610399482821552,0.26508323894046304,0.26847483312256437,0.2722268363588963,0.2770307097135026,0.28306567186110815,0.28968886251527554,0.2963839590859441,0.3019569718422381,0.3051770598630822,0.30509139544006114,0.3009582472953899,0.29342774025191265,0.28320173531950776,0.27131926373548976,0.25894225215673455,0.24685527728962475,0.23617264027400386,0.22714873884551307,0.2195501006905631,0.21279310887340797,0.205933145448767,0.19863062115520588,0.19047873598275528,0.18138810954003698,0.1716033194739595,0.1614344767825374,0.151768209072752,0.14317865085882875,0.1360310277995348,0.130413530074511,0.1259743819681984,0.12254862072383693,0.1196686684099561,0.11688779147591111,0.11389381807413415,0.11041710582276308,0.10676369705282143,0.10318440541430741,0.0999732126395149,0.09737410607375732,0.09535760823737625,0.0940871120242212,0.09338250250049733,0.09296305248060444,0.092540688328744,0.09173786178407513,0.09073739351685421,0.08961420316479081,0.08853528481616871,0.08770727058373068,0.08711498578243687,0.08714436921985155,0.08774456479337306,0.08872639158692909,0.08983392902350316,0.09062050560164343,0.09124816251009917,0.09165404371767372,0.0918590458664959,0.09196058746327565,0.09187793586713289,0.09208443914988079,0.09263383915544206,0.0934713571002546,0.09446709100229705,0.09528857487768225,0.09606500624434375,0.09666174095980791,0.09697672635428459,0.09697359454131843,0.09656661090050699,0.09606856257477416,0.09557386945615161,0.0951427073478275,0.0947962225308599,0.09444408223453127,0.0941785631421413,0.09387916064968146,0.09339939574171151,0.09261885052040138,0.09146392476497493,0.09004065893153268,0.08839572539724443,0.08659970181248393,0.08473828077981906,0.08243512428867934,0.08026771162094179,0.07850990417033946,0.07736708710454755,0.07685771103923673,0.07582815611170321,0.07472165472737809,0.0734667659957875,0.07208846266680427,0.07068072505340899,0.0686119581257827,0.06666630306239706,0.06519001533517142,0.06444663307013915,0.06450373906758122,0.0646320055970097,0.06501837614088775,0.06550286694722107,0.06601768075340785,0.06659429265584389,0.06693571896192789,0.0674308322585191,0.06808147843391363,0.06866114599711616,0.06868484624410659,0.06731016848677576,0.06410057084032565,0.05872897801084451,0.05134072646519957,0.04263242438194011,0.033647463557306835,0.02582992643107738,0.02025685677311458,0.017346260236833146,0.016580002519773648,0.016449036609259237,0.014833237299360874,0.009386754860428434,-0.0016062267970259508,-0.018412269125976575,-0.03922620621709082,-0.05983166856843232,-0.07403086000030262,-0.07437381370590578,-0.05340454077172679,-0.005166063576791691,0.0734075800641063,0.181252479323158,0.3128141532119195,0.4584554483572394,0.6056445450057332,0.7409899961086485,0.8521838536991924,0.9301103777969992,0.9703154374862054,0.9735101421948783,0.9454063671730235,0.8950787554205033,0.8331046678409928,0.7694526764508665,0.7116023220074194,0.6636989938411866,0.6260553531099556,0.595886615071856,0.5685899154155276,0.539207255948819,0.504089035471178,0.46155932156258406,0.41228783501059163,0.3589315987396386,0.30524552985683273,0.25520264030250495,0.2118197875212969,0.1765852175372802,0.1492732820637496,0.12819149617429249,0.11086639776945918,0.09465305517137772,0.07749077794123975,0.058383854251114545,0.03757109423642649,0.016311823089791642,-0.003583065282005008,-0.020292741989793667,-0.03250557356152053,-0.03971621691924411,-0.042464404607094906,-0.04207034238286013,-0.04026150704887256,-0.03867915056890227,-0.03835927775190799,-0.03965556208165502,-0.04201892318869563,-0.044245363260407775,-0.044852727576284016,-0.04244242635519904,-0.03635697587832163,-0.026639402900265202,-0.014116843634526836,-0.0001934211174159431,0.013313600173015982,0.02532086308655412,0.034730602406348815,0.0410513502277533,0.04446588534145213,0.0452550934418954,0.04532571300842237,0.0455007447501142,0.04623222320872882,0.047598472056345334,0.049015892323314,0.05074561844627198,0.052098447308341234,0.052305376047331244,0.05073105877123854,0.046771990443809426,0.04095766094435217,0.033540144583314536,0.02497350465043836,0.015868906087159504,0.006743574937006982,0.0,0.0,0.0,0.0,0.0,0.0,0.0,0.0,0.0,0.0,0.0,0.0,0.0,0.0,0.0,0.0,0.0,0.0,0.0,0.0,0.0,0.0,0.0,0.0,0.0,0.0,0.0,0.0,0.0,0.0,0.0,0.0,0.0,0.0,0.0,0.0,0.0,0.0,0.0,0.0,0.0,0.0,0.0,0.0,0.0,0.0,0.0,0.0,0.0,0.0,0.0,0.0
0.4584554483572394,0.6056445450057332,0.7409899961086485,0.8521838536991924,0.9301103777969992,0.9703154374862054,0.9735101421948783,0.9454063671730235,0.8950787554205033,0.8331046678409928,0.7694526764508665,0.7116023220074194,0.6636989938411866,0.6260553531099556,0.595886615071856,0.5685899154155276,0.539207255948819,0.504089035471178,0.46155932156258406,0.41228783501059163,0.3589315987396386,0.30524552985683273,0.25520264030250495,0.2118197875212969,0.1765852175372802,0.1492732820637496,0.12819149617429249,0.11086639776945918,0.09465305517137772,0.07749077794123975,0.058383854251114545,0.03757109423642649,0.016311823089791642,-0.003583065282005008,-0.020292741989793667,-0.03250557356152053,-0.03971621691924411,-0.042464404607094906,-0.04207034238286013,-0.04026150704887256,-0.03867915056890227,-0.03835927775190799,-0.03965556208165502,-0.04201892318869563,-0.044245363260407775,-0.044852727576284016,-0.04244242635519904,-0.03635697587832163,-0.026639402900265202,-0.014116843634526836,-0.0001934211174159431,0.013313600173015982,0.02532086308655412,0.034730602406348815,0.0410513502277533,0.04446588534145213,0.0452550934418954,0.04532571300842237,0.0455007447501142,0.04623222320872882,0.047598472056345334,0.049015892323314,0.05074561844627198,0.052098447308341234,0.052305376047331244,0.05073105877123854,0.046771990443809426,0.04095766094435217,0.033540144583314536,0.02497350465043836,0.015868906087159504,0.006743574937006982,-0.0014807885227782445,-0.00847154742495832,-0.014218681836748162,-0.018993246596919533,-0.023298991200330018,-0.027509949506911244,-0.03206673558880243,-0.037226742614715744,-0.04298460171856584,-0.04907857258446707,-0.05499993870503777,-0.060225421131993744,-0.06430647879463562,-0.06697595684021215,-0.06817425856690783,-0.06815005962998161,-0.06728226546768715,-0.06601856668163589,-0.06476688940514867,-0.06378198672430253,-0.06320336696433398,-0.06295129286446682,-0.06281894851234608,-0.06255782197008518,-0.06194831347148222,-0.06092897075276988,-0.059518262471769126,-0.05783620762978384,-0.056059927265991606,-0.0543841288713736,-0.052911445872093954,-0.05166603161643651,-0.05058706298628942,-0.049562032561898034,-0.0485283695211257,-0.04733546451511695,-0.04595539538161228,-0.044424081941439056,-0.042820103729095484,-0.04132552766391166,-0.039906120449578746,-0.038572359995144946,-0.03730528084589512,-0.036078174896292926,-0.03500896767187044,-0.03397012694410174,-0.032950299419196756,-0.03194378952615974,-0.0309438037232672,-0.03003011100674138,-0.02909924956384016,-0.028101947650417337,-0.027004287834758348,-0.02580943255024147,-0.024618771982682097,-0.023478574083502457,-0.022445086805404708,-0.02154497812957619,-0.020761963027111377,-0.020062356699687225,-0.01934498900381025,-0.018464895205962135,-0.01728431277288807,-0.01571449350398129,-0.013746056660920719,-0.01147489065655037,-0.008995057449002157,-0.0064159702503343245,-0.0038391891367243573,-0.0013576901881345777,0.0009911153239989864,0.003270211497495678,0.00558504578033212,0.008036115230532569,0.010634764214051838,0.013362935385652213,0.016172504335994858,0.018979217389326425,0.021689341372419235,0.02407819676216486,0.026303660420980358,0.028640777405072006,0.03150209485203443,0.0353425675143059,0.04024977277809645,0.04667764491524922,0.0547742866169555,0.06442975941780552,0.07521595551530719,0.08616093527899145,0.09647471571743428,0.10523642286684924,0.11163452919822257,0.11508934351630844,0.11518671774236702,0.11218591234610349,0.1066948210874131,0.09963022664637058,0.09203804643798762,0.08476132189320648,0.0786091752034118,0.07399139810042717,0.07091006116307352,0.06898674935966682,0.06748958558116162,0.06576754267373464,0.06328540360869457,0.059810787896077654,0.055482741918828044,0.05069171139531323,0.046221589755968,0.04288940679495981,0.041365418105966424,0.041978734477989284,0.0445127871550503,0.04848357160874647,0.05308610751531211,0.05745877511220628,0.06094696787418964,0.06321742733996352,0.0648269550060201,0.06695659218931231,0.07133437181775862,0.07991520127039001,0.0942765191017367,0.11569836880004772,0.1443817289436244,0.17932670824411928,0.21832066937247954,0.25796831680322085,0.294762095897734,0.32517819415558846,0.34638923707720304,0.3567261374745691,0.35569747950967834,0.34468776561848774,0.32611690646693287,0.3031046907041128,0.2788686600969424,0.2559431229622857,0.23638316386630218,0.2209981937749401,0.20955199908787084,0.2010111827193156,0.19375605421010675,0.18656492466448785,0.1784180902065843,0.1688853364213732,0.15816819877412286,0.14685359227860026,0.13607392837792845,0.12681777161097002,0.11980478269825928,0.11532521482893011,0.11312783727092525,0.11273502155561495,0.1133536803951749,0.11417381760074795,0.11457846623780919,0.11425112247563511,0.11339953513042828,0.11253565241876713,0.1124110179653104,0.11383171764668827,0.11743097657792304,0.12357145358259837,0.13212839259326783,0.1425243493549909,0.15383632280559137,0.16496357656896926,0.17497508204039774,0.18318728895473926,0.18937908591798877,0.19384092796449442,0.19725583470634497,0.20062906197950983,0.0,0.0,0.0,0.0,0.0,0.0,0.0,0.0,0.0,0.0,0.0,0.0,0.0,0.0,0.0,0.0,0.0,0.0,0.0,0.0,0.0,0.0,0.0,0.0,0.0,0.0,0.0,0.0,0.0,0.0,0.0,0.0,0.0,0.0,0.0,0.0,0.0,0.0,0.0,0.0,0.0,0.0,0.0,0.0,0.0,0.0,0.0,0.0,0.0,0.0,0.0,0.0
0.294762095897734,0.32517819415558846,0.34638923707720304,0.3567261374745691,0.35569747950967834,0.34468776561848774,0.32611690646693287,0.3031046907041128,0.2788686600969424,0.2559431229622857,0.23638316386630218,0.2209981937749401,0.20955199908787084,0.2010111827193156,0.19375605421010675,0.18656492466448785,0.1784180902065843,0.1688853364213732,0.15816819877412286,0.14685359227860026,0.13607392837792845,0.12681777161097002,0.11980478269825928,0.11532521482893011,0.11312783727092525,0.11273502155561495,0.1133536803951749,0.11417381760074795,0.11457846623780919,0.11425112247563511,0.11339953513042828,0.11253565241876713,0.1124110179653104,0.11383171764668827,0.11743097657792304,0.12357145358259837,0.13212839259326783,0.1425243493549909,0.15383632280559137,0.16496357656896926,0.17497508204039774,0.18318728895473926,0.18937908591798877,0.19384092796449442,0.19725583470634497,0.20062906197950983,0.20482589000658988,0.2103781458179951,0.21730085487809306,0.22492646632041413,0.23241122365816355,0.23839679066874433,0.24152380026793538,0.2407607817916917,0.23546801784048238,0.22620507841597157,0.21375416441430872,0.19928848048248396,0.18414402580497755,0.16941297063056446,0.15626599107895536,0.1450789061305435,0.1356887282795785,0.12752726981826343,0.11972540440293593,0.11175260680759068,0.1030811520504471,0.09350614501198819,0.08318842580827222,0.07250332289238468,0.06223895307268197,0.052988478771856036,0.045151529677996516,0.03884958179828103,0.03384287242349584,0.029864421559153278,0.026406523261366947,0.022982381667731044,0.01926126800796556,0.01507740654648386,0.010699885178203566,0.006441353032782569,0.002665293046014617,-0.00032704578234990934,-0.002458432998626523,-0.0036613960972289015,-0.004179532063998429,-0.004373228571584853,-0.004600779786877769,-0.00520433695841882,-0.006087915293107509,-0.007148244162608004,-0.00816484404780822,-0.008874513791405629,-0.00918299390977863,-0.008786090078569878,-0.007755075446005907,-0.0063109699422528925,-0.004741702345564701,-0.0034552688869385817,-0.0023817905903391868,-0.0015811974522255963,-0.0010227944778257968,-0.0006088908997237724,-0.0003878221839021573,1.4273482357646857e-06,0.0005769740899696365,0.0012734331891585994,0.0019893725239187223,0.002462684978833663,0.0029078362965734537,0.0033643191333282887,0.003900022945983623,0.004587635947561218,0.005291106229542526,0.0062443689326135915,0.007446131696603236,0.008848728012961181,0.010372110068764314,0.011782788883046248,0.01313803067042064,0.014367193967361492,0.015398112625229375,0.016156584189967408,0.016486016800311493,0.016429284196493442,0.015999167618835186,0.015263010787524867,0.01434355946812688,0.013346261666153969,0.012512971763012998,0.012026495534661043,0.012016686415627784,0.01253053474628635,0.013489446418609075,0.014795963465160437,0.016295493396503307,0.017834871642618575,0.019300533929812916,0.02063484408574898,0.021871265005066712,0.02310552034866478,0.024465968259115397,0.026070533113339484,0.02799695177886752,0.030215719721340906,0.03262603213036999,0.03506913000809805,0.03738084311395042,0.03932762926644223,0.04106721049473684,0.042888386601194886,0.04525121707687312,0.048691153114561334,0.053408204523207506,0.059960293045824994,0.0685206489963228,0.07893492956436167,0.09066527572892298,0.1025833997143146,0.1137476364848281,0.12305971462843432,0.12957166801175038,0.13263939834328461,0.1318555603157278,0.12760626713512876,0.12063043020072864,0.11198070001142947,0.1028148382951633,0.09403118614944898,0.0864884810170094,0.08056331684109753,0.07620329552008526,0.07299027824704199,0.07018422896081057,0.06722292793076548,0.06365705535692992,0.05933985715296754,0.054452110044229715,0.04941673486218209,0.04476932117091686,0.040929754349786455,0.03804842391123199,0.035913941841417454,0.033960247576918706,0.031416414877741675,0.02748953406927004,0.02163951044232311,0.013833042345034177,0.00471787564757952,-0.004276489396271064,-0.01108187670507951,-0.01322962550025961,-0.008247857151349099,0.005840927983790467,0.03008648579851194,0.06416348220574726,0.10622657137951073,0.15302576412576874,0.20030339149165913,0.24353110764985214,0.2785992581628491,0.3025915585614439,0.31429938540288654,0.31434743129062753,0.305030331163919,0.28958098709796787,0.27142999587663547,0.2534538058445978,0.23740979820835506,0.2239593577571004,0.21265335316533202,0.20251288783603014,0.19260822628630905,0.18243370331978237,0.17232291835647057,0.16292924155851662,0.15494059334593363,0.1486150555986052,0.1434009383518595,0.1381036224758311,0.13092177568689586,0.12011003035546688,0.10462188491090131,0.0845552861463163,0.06143589886089672,0.03775358318663677,0.016418656809835487,0.0,0.0,0.0,0.0,0.0,0.0,0.0,0.0,0.0,0.0,0.0,0.0,0.0,0.0,0.0,0.0,0.0,0.0,0.0,0.0,0.0,0.0,0.0,0.0,0.0,0.0,0.0,0.0,0.0,0.0,0.0,0.0,0.0,0.0,0.0,0.0,0.0,0.0,0.0,0.0,0.0,0.0,0.0,0.0,0.0,0.0,0.0,0.0,0.0,0.0,0.0,0.0,0.0,0.0,0.0,0.0,0.0,0.0,0.0,0.0,0.0,0.0,0.0,0.0,0.0,0.0,0.0,0.0,0.0,0.0,0.0,0.0
0.24353110764985214,0.2785992581628491,0.3025915585614439,0.31429938540288654,0.31434743129062753,0.305030331163919,0.28958098709796787,0.27142999587663547,0.2534538058445978,0.23740979820835506,0.2239593577571004,0.21265335316533202,0.20251288783603014,0.19260822628630905,0.18243370331978237,0.17232291835647057,0.16292924155851662,0.15494059334593363,0.1486150555986052,0.1434009383518595,0.1381036224758311,0.13092177568689586,0.12011003035546688,0.10462188491090131,0.0845552861463163,0.06143589886089672,0.03775358318663677,0.016418656809835487,0.0,0.0,0.0,0.0,0.0,0.0,0.0,0.0,0.0,0.0,0.0,0.0,0.0,0.0,0.0,0.0,0.0,0.0,0.0,0.0,0.0,0.0,0.0,0.0,0.0,0.0,0.0,0.0,0.0,0.0,0.0,0.0,0.0,0.0,0.0,0.0,0.0,0.0,0.0,0.0,0.0,0.0,0.0,0.0,0.0,0.0,0.0,0.0,0.0,0.0,0.0,0.0,0.0,0.0,0.0,0.0,0.0,0.0,0.0,0.0,0.0,0.0,0.0,0.0,0.0,0.0,0.0,0.0,0.0,0.0,0.0,0.0,0.0,0.0,0.0,0.0,0.0,0.0,0.0,0.0,0.0,0.0,0.0,0.0,0.0,0.0,0.0,0.0,0.0,0.0,0.0,0.0,0.0,0.0,0.0,0.0,0.0,0.0,0.0,0.0,0.0,0.0,0.0,0.0,0.0,0.0,0.0,0.0,0.0,0.0,0.0,0.0,0.0,0.0,0.0,0.0,0.0,0.0,0.0,0.0,0.0,0.0,0.0,0.0,0.0,0.0,0.0,0.0,0.0,0.0,0.0,0.0,0.0,0.0,0.0,0.0,0.0,0.0,0.0,0.0,0.0,0.0,0.0,0.0,0.0,0.0,0.0,0.0,0.0,0.0,0.0,0.0,0.0,0.0,0.0,0.0,0.0,0.0,0.0,0.0,0.0,0.0,0.0,0.0,0.0,0.0,0.0,0.0,0.0,0.0,0.0,0.0,0.0,0.0,0.0,0.0,0.0,0.0,0.0,0.0,0.0,0.0,0.0,0.0,0.0,0.0,0.0,0.0,0.0,0.0,0.0,0.0,0.0,0.0,0.0,0.0,0.0,0.0,0.0,0.0,0.0,0.0,0.0,0.0,0.0,0.0,0.0,0.0,0.0,0.0,0.0,0.0,0.0,0.0,0.0,0.0,0.0,0.0,0.0,0.0,0.0,0.0,0.0,0.0,0.0,0.0,0.0,0.0,0.0,0.0,0.0,0.0,0.0,0.0,0.0,0.0,0.0,0.0,0.0,0.0,0.0,0.0,0.0,0.0,0.0,0.0,0.0,0.0,0.0,0.0,0.0,0.0,0.0,0.0,0.0,0.0,0.0,0.0,0.0,0.0,0.0,0.0,0.0,0.0,0.0,0.0,0.0,0.0,0.0,0.0,0.0,0.0
0.1425040344445054,0.1539822628771975,0.16489952101001257,0.17460046157948944,0.1825305147813589,0.18828690585397048,0.19131219087729764,0.1919696300992545,0.1907144448639235,0.18824885292391969,0.18539094437997256,0.18261577419859198,0.18076952315527758,0.18021574329247847,0.18093302168983938,0.18249498290597468,0.18391335351649193,0.18453231085646646,0.18366070688152045,0.18095953071293755,0.1766041686431591,0.1711429343090614,0.1660689299520549,0.16312651319299035,0.1641523101157395,0.17071335438034346,0.18358194546210987,0.20301267346137541,0.2282138970262942,0.25753623669196174,0.28873163643491667,0.31915353415273334,0.3468883648078051,0.370675827173169,0.3903278220570942,0.4067499184894899,0.42144024264553465,0.4367588025979016,0.4546814096707085,0.47635397176344696,0.5016369279887681,0.528683850080973,0.5549698127767134,0.5771182624468023,0.5918128640749029,0.5965239374880462,0.5897874617812674,0.5723575905947906,0.5463268187335488,0.514894055500535,0.4816783401796394,0.44972373079479516,0.4217031388681769,0.3987948412228539,0.38088539009525657,0.36683274287123246,0.35470250735378595,0.3430365490202985,0.3305342059740738,0.3165807251653839,0.30131378794290953,0.28530097941847343,0.2698606635054759,0.25605528151733165,0.2446201933076026,0.23579483301458654,0.2291630448765985,0.2242382162476536,0.22011103405386154,0.21590333389121108,0.21101854609435106,0.20520326086602292,0.1989886470673862,0.19311909030206015,0.18855349129910226,0.18624225917411563,0.18681307143601017,0.19069153405502245,0.1975804684381775,0.20665400978378218,0.216729887034075,0.2263862315822261,0.234772162882181,0.24112044990346215,0.24517091198718238,0.2472175148940344,0.247813140266052,0.24830469917963122,0.24953146123115147,0.25196533581383485,0.2555917282357024,0.25965818307216804,0.26371805836120504,0.26656079835305196,0.2669561285483171,0.26396594157737036,0.25688225614386756,0.24644621502477906,0.23329055510188093,0.2183652178985359,0.2027813204670558,0.1873857916269033,0.1734509504611349,0.16132965612198913,0.1508811345064508,0.14159669935674127,0.1326290282809134,0.12364871859603667,0.11412701005939212,0.10380389158254844,0.09276469467655567,0.08128673877961545,0.07022323898046338,0.060117462013930166,0.051323158266708704,0.043932689996370095,0.0376868817702525,0.0323999875220359,0.027542543415246073,0.02260214958330225,0.017246262424186032,0.011349991349580835,0.0053219542241653905,-0.00043989403370840236,-0.005487088328682266,-0.009440165147998029,-0.01215302110240197,-0.013504142857441016,-0.01379289803297532,-0.013494604880324643,-0.013115409782627827,-0.013129024005140105,-0.01355447880996175,-0.01441436433870275,-0.015572803891359364,-0.016790654417257626,-0.017902876034312527,-0.018512491799004143,-0.018609205668925807,-0.018342107328440806,-0.01794403230878983,-0.017739529456228562,-0.017673943834835018,-0.017861506449714938,-0.01834677079514859,-0.01909741020032203,-0.020122679075852978,-0.021096062016776586,-0.021988164976310932,-0.022833740955311578,-0.02368878633267039,-0.024672430940685153,-0.025609461840222534,-0.026509308199186562,-0.027391429754317694,-0.02828016246501875,-0.029268882418438308,-0.030257178741871147,-0.03129593605867594,-0.03243526883346683,-0.0336913377183842,-0.035081271980166986,-0.03641816773160035,-0.03759141339487795,-0.03850511137152293,-0.039102512971749645,-0.03942651456596731,-0.03946898842761661,-0.03931973569923914,-0.03908629490288374,-0.03886297648008498,-0.03872380476403482,-0.038660265579317434,-0.038648980476109485,-0.0386494177097925,-0.03862343998842031,-0.03853690027765858,-0.038408007581175144,-0.038258381237424664,-0.03811346252188906,-0.03798877285183858,-0.03785144666090222,-0.03771933891885043,-0.037584480216894076,-0.037452732648005964,-0.03735410571525685,-0.03729555275307515,-0.03739995453642163,-0.03774994551264456,-0.03839199244753489,-0.039302482161339615,-0.040779238525049874,-0.04221947369000461,-0.04309154544793229,-0.04287192580505009,-0.04125085860742238,-0.039165569499660484,-0.0362328522616281,-0.03263091126864111,-0.02856431506396304,-0.024252515753077568,-0.020642262453611778,-0.017325896704872175,-0.014125403035453645,-0.010813753710848528,-0.007254172898732755,-0.004029304233546311,-0.0008685828507765318,0.002248733665699966,0.005409399166277347,0.00873717883074009,0.011955564569560893,0.01533241390171324,0.0188181417216048,0.02213147963138771,0.024728530560212934,0.025704745574671152,0.024512428912639057,0.02085930404531918,0.014978751288606535,0.007681487937334201,0.00011349606261368259,-0.006233647041960814,-0.010137215541974665,-0.011040422015990963,-0.009365554685544536,-0.006615745966579211,-0.004999685230797421,-0.006894969026710107,-0.014072413918227292,-0.02689121335421921,-0.04370347483068645,-0.06049572849824944,-0.07115828916313209,-0.06828201752457011,-0.04441687202289389,0.006386047786345089,0.08718525578323101,0.19703338785401728,0.3305163576196067,0.4781168222792712,0.6273465241196313,0.7647745425197533,0.8781057620322477,0.9582229050704292,1.0006505165814363,1.0060406190950488,0.9800175839120938,0.9316755799086192,0.8716408992446802,0.8099325263967606,0.7540374565913425,0.7080799393805522,0.672414357643789,0.6443094120040874,0.619214536212085,0.5921835988033226,0.5595689365549246,0.5197213989744752,0.47331113918227175,0.4229494777685681,0.3722843805038993,0.32514694578706377,0.2844687749976198,0.25170930478832815,0.2266844193250513,0.2078097338269186,0.19273175186043587,0.1789594015396479,0.1645327705538078,0.0,0.0,0.0,0.0,0.0,0.0,0.0,0.0,0.0,0.0,0.0,0.0,0.0,0.0,0.0,0.0,0.0,0.0,0.0,0.0,0.0,0.0,0.0,0.0,0.0,0.0,0.0,0.0,0.0,0.0
0.3430365490202985,0.3305342059740738,0.3165807251653839,0.30131378794290953,0.28530097941847343,0.2698606635054759,0.25605528151733165,0.2446201933076026,0.23579483301458654,0.2291630448765985,0.2242382162476536,0.22011103405386154,0.21590333389121108,0.21101854609435106,0.20520326086602292,0.1989886470673862,0.19311909030206015,0.18855349129910226,0.18624225917411563,0.18681307143601017,0.19069153405502245,0.1975804684381775,0.20665400978378218,0.216729887034075,0.2263862315822261,0.234772162882181,0.24112044990346215,0.24517091198718238,0.2472175148940344,0.247813140266052,0.24830469917963122,0.24953146123115147,0.25196533581383485,0.2555917282357024,0.25965818307216804,0.26371805836120504,0.26656079835305196,0.2669561285483171,0.26396594157737036,0.25688225614386756,0.24644621502477906,0.23329055510188093,0.2183652178985359,0.2027813204670558,0.1873857916269033,0.1734509504611349,0.16132965612198913,0.1508811345064508,0.14159669935674127,0.1326290282809134,0.12364871859603667,0.11412701005939212,0.10380389158254844,0.09276469467655567,0.08128673877961545,0.07022323898046338,0.060117462013930166,0.051323158266708704,0.043932689996370095,0.0376868817702525,0.0323999875220359,0.027542543415246073,0.02260214958330225,0.017246262424186032,0.011349991349580835,0.0053219542241653905,-0.00043989403370840236,-0.005487088328682266,-0.009440165147998029,-0.01215302110240197,-0.013504142857441016,-0.01379289803297532,-0.013494604880324643,-0.013115409782627827,-0.013129024005140105,-0.01355447880996175,-0.01441436433870275,-0.015572803891359364,-0.016790654417257626,-0.017902876034312527,-0.018512491799004143,-0.018609205668925807,-0.018342107328440806,-0.01794403230878983,-0.017739529456228562,-0.017673943834835018,-0.017861506449714938,-0.01834677079514859,-0.01909741020032203,-0.020122679075852978,-0.021096062016776586,-0.021988164976310932,-0.022833740955311578,-0.02368878633267039,-0.024672430940685153,-0.025609461840222534,-0.026509308199186562,-0.027391429754317694,-0.02828016246501875,-0.029268882418438308,-0.030257178741871147,-0.03129593605867594,-0.03243526883346683,-0.0336913377183842,-0.035081271980166986,-0.03641816773160035,-0.03759141339487795,-0.03850511137152293,-0.039102512971749645,-0.03942651456596731,-0.03946898842761661,-0.03931973569923914,-0.03908629490288374,-0.03886297648008498,-0.03872380476403482,-0.038660265579317434,-0.038648980476109485,-0.0386494177097925,-0.03862343998842031,-0.03853690027765858,-0.038408007581175144,-0.038258381237424664,-0.03811346252188906,-0.03798877285183858,-0.03785144666090222,-0.03771933891885043,-0.037584480216894076,-0.037452732648005964,-0.03735410571525685,-0.03729555275307515,-0.03739995453642163,-0.03774994551264456,-0.03839199244753489,-0.039302482161339615,-0.040779238525049874,-0.04221947369000461,-0.04309154544793229,-0.04287192580505009,-0.04125085860742238,-0.039165569499660484,-0.0362328522616281,-0.03263091126864111,-0.02856431506396304,-0.024252515753077568,-0.020642262453611778,-0.017325896704872175,-0.014125403035453645,-0.010813753710848528,-0.007254172898732755,-0.004029304233546311,-0.0008685828507765318,0.002248733665699966,0.005409399166277347,0.00873717883074009,0.011955564569560893,0.01533241390171324,0.0188181417216048,0.02213147963138771,0.024728530560212934,0.025704745574671152,0.024512428912639057,0.02085930404531918,0.014978751288606535,0.007681487937334201,0.00011349606261368259,-0.006233647041960814,-0.010137215541974665,-0.011040422015990963,-0.009365554685544536,-0.006615745966579211,-0.004999685230797421,-0.006894969026710107,-0.014072413918227292,-0.02689121335421921,-0.04370347483068645,-0.06049572849824944,-0.07115828916313209,-0.06828201752457011,-0.04441687202289389,0.006386047786345089,0.08718525578323101,0.19703338785401728,0.3305163576196067,0.4781168222792712,0.6273465241196313,0.7647745425197533,0.8781057620322477,0.9582229050704292,1.0006505165814363,1.0060406190950488,0.9800175839120938,0.9316755799086192,0.8716408992446802,0.8099325263967606,0.7540374565913425,0.7080799393805522,0.672414357643789,0.6443094120040874,0.619214536212085,0.5921835988033226,0.5595689365549246,0.5197213989744752,0.47331113918227175,0.4229494777685681,0.3722843805038993,0.32514694578706377,0.2844687749976198,0.25170930478832815,0.2266844193250513,0.2078097338269186,0.19273175186043587,0.1789594015396479,0.1645327705538078,0.14845346629716516,0.13083394124194392,0.1126832498007982,0.09554481840983964,0.08100193596302227,0.07022251326927902,0.06370129451977119,0.061012089764207786,0.06107028345900012,0.06241843421678465,0.06363852926528098,0.06380555317159672,0.06254283871576209,0.0602695264263808,0.05800356123957262,0.05705454526128295,0.058718208583973155,0.06366702750830362,0.07196111727501003,0.082932584616998,0.095335148565669,0.10743821060423006,0.1181979015727081,0.1264464565902719,0.13156747810952146,0.13361575187005506,0.1327643164455848,0.13095710145110495,0.1290951342221292,0.12775499979339902,0.12713761497492856,0.12669336179382756,0.12670609913252423,0.1263519680473912,0.12463642609591369,0.12065947807980207,0.1135405598366025,0.10372453468082062,0.09145560311438378,0.07733111438604678,0.06224467282643776,0.04704813348159255,0.03313854233152374,0.02120350074542187,0.01149328426060444,0.003829867573073452,-0.0023939019822469695,-0.007657251288070884,-0.012673798781206266,-0.018002358847068044,-0.02390225362020229,-0.030342814520796273,-0.03681314560497047,-0.042805679392806883,-0.04784727341595952,-0.051634374813478025,-0.05413540640090784,0.0,0.0,0.0,0.0,0.0,0.0,0.0,0.0,0.0,0.0,0.0,0.0,0.0,0.0,0.0,0.0,0.0,0.0,0.0,0.0,0.0,0.0,0.0,0.0,0.0,0.0,0.0,0.0,0.0,0.0
0.3305163576196067,0.4781168222792712,0.6273465241196313,0.7647745425197533,0.8781057620322477,0.9582229050704292,1.0006505165814363,1.0060406190950488,0.9800175839120938,0.9316755799086192,0.8716408992446802,0.8099325263967606,0.7540374565913425,0.7080799393805522,0.672414357643789,0.6443094120040874,0.619214536212085,0.5921835988033226,0.5595689365549246,0.5197213989744752,0.47331113918227175,0.4229494777685681,0.3722843805038993,0.32514694578706377,0.2844687749976198,0.25170930478832815,0.2266844193250513,0.2078097338269186,0.19273175186043587,0.1789594015396479,0.1645327705538078,0.14845346629716516,0.13083394124194392,0.1126832498007982,0.09554481840983964,0.08100193596302227,0.07022251326927902,0.06370129451977119,0.061012089764207786,0.06107028345900012,0.06241843421678465,0.06363852926528098,0.06380555317159672,0.06254283871576209,0.0602695264263808,0.05800356123957262,0.05705454526128295,0.058718208583973155,0.06366702750830362,0.07196111727501003,0.082932584616998,0.095335148565669,0.10743821060423006,0.1181979015727081,0.1264464565902719,0.13156747810952146,0.13361575187005506,0.1327643164455848,0.13095710145110495,0.1290951342221292,0.12775499979339902,0.12713761497492856,0.12669336179382756,0.12670609913252423,0.1263519680473912,0.12463642609591369,0.12065947807980207,0.1135405598366025,0.10372453468082062,0.09145560311438378,0.07733111438604678,0.06224467282643776,0.04704813348159255,0.03313854233152374,0.02120350074542187,0.01149328426060444,0.003829867573073452,-0.0023939019822469695,-0.007657251288070884,-0.012673798781206266,-0.018002358847068044,-0.02390225362020229,-0.030342814520796273,-0.03681314560497047,-0.042805679392806883,-0.04784727341595952,-0.051634374813478025,-0.05413540640090784,-0.05550572443027363,-0.056165386794215524,-0.05661120063395851,-0.05726240348822054,-0.05835524693087136,-0.059793469298846096,-0.0613061276194061,-0.062481433833735535,-0.06289043216296304,-0.06223518099758381,-0.0603565980460192,-0.05739521554188724,-0.05370209436738424,-0.049739186629926956,-0.046003105187900475,-0.04273901768294181,-0.040115108854446434,-0.0381190319630607,-0.03658794109689086,-0.03534781925773744,-0.03402503307833946,-0.032467035511375655,-0.030644470825365262,-0.028634446723424245,-0.026656330083544684,-0.02473934146409415,-0.02303623541694592,-0.02166415611779158,-0.02068095234995763,-0.020163342596070125,-0.019920063169477555,-0.019869427280832866,-0.019928907902903414,-0.02001999408455276,-0.020136432107677633,-0.020139840182375357,-0.019999707151349033,-0.01972451134813174,-0.01935903581914789,-0.019016233362925232,-0.018731823037054795,-0.018545848371987438,-0.0184641333776058,-0.018456995168732723,-0.018536895183470188,-0.018582118787099682,-0.01848189701059843,-0.018148948770602774,-0.017554954518317553,-0.016842912833251976,-0.016059331340459705,-0.015266641652806162,-0.0145031298353083,-0.013778525993749003,-0.013151692561571886,-0.012553051382462566,-0.011884616065110353,-0.011051425225875336,-0.010002097469180453,-0.008803356753926324,-0.007519193486163722,-0.006210728860121062,-0.0049270023771360635,-0.003692890059840717,-0.0025483638321111713,-0.0014434099538492794,-0.0002801025851371025,0.0010481299483501843,0.0026163173494990186,0.004400387778460505,0.006366638687218991,0.00845175812008318,0.010581814565416889,0.012692565933256595,0.014727420162031145,0.016688936909255568,0.01863278551765577,0.020637263315721438,0.022768814517014166,0.025050031756277485,0.02743003291092158,0.02981858722937036,0.032098366018843194,0.03417043560544503,0.035837807984683216,0.037367050424387385,0.0391409880114426,0.04168962245999058,0.0455720566938759,0.05088377282248926,0.05815684717463371,0.06750303614403187,0.07871437281094543,0.09121621672171148,0.1038087775003253,0.11560100344309512,0.1255645782682711,0.13283956545264788,0.1368603767495471,0.13722335471204386,0.1343416910696108,0.1289416820366067,0.12203342443142809,0.11470518885285713,0.10772385414872501,0.10188359136970794,0.09751338249187715,0.09454107013076776,0.09255000095616717,0.0907697832523922,0.08869116286584171,0.08593184997691956,0.08242013628297759,0.07839796037224078,0.07417035089741143,0.07037890501355604,0.0674586669804355,0.06552401671985425,0.06424591978831436,0.06270242951595907,0.06000304622300628,0.05521321193579633,0.04777362975107784,0.03780012343609506,0.02608595585841223,0.01471393055521914,0.0064224791431845415,0.004325144945394021,0.011354327083875746,0.029425894485266692,0.05961238893535618,0.10125179708708415,0.1520049406931436,0.20805702438995619,0.2643462636926421,0.31601795978777025,0.35857228865894847,0.3887038622442369,0.4047597216960366,0.4066298650202207,0.3964299826584805,0.37738652206170703,0.35337407252455827,0.3281940863603584,0.30466839316818906,0.2850323070899939,0.2700492379747923,0.25932492476782026,0.2516284510246803,0.2450802607225629,0.23843142671833245,0.2306591318325101,0.2213950702402957,0.21092922458060387,0.1998445928707468,0.18939066027147325,0.1805756974953239,0.17410413884851453,0.17022999813652742,0.16858945881524695,0.16875724468139647,0.16996331732561812,0.17143459478671996,0.17258035866146423,0.1730097349585632,0.17294017371593634,0.1728006672383346,0.1732326521410993,0.17493071918640105,0.1783894483951771,0.18400429573939847,0.19170872506401399,0.20104350551041714,0.211234325328977,0.22129088117023504,0.2303899811252415,0.23789344243942526,0.243548373899555,0.24753793147155292,0.2503831424736201,0.2528875810464885,0.25581415542639857,0.0,0.0,0.0,0.0,0.0,0.0,0.0,0.0,0.0,0.0,0.0,0.0,0.0,0.0,0.0,0.0,0.0,0.0,0.0,0.0,0.0,0.0,0.0,0.0,0.0,0.0,0.0,0.0,0.0,0.0
0.922129991683801,0.9280090905149617,0.9062926918350981,0.8648983405531071,0.8130584520322036,0.7595091001001285,0.7107052972552326,0.6706066482614665,0.639867103055094,0.6164991451155917,0.5968882085164557,0.5768051767781144,0.5532453913781248,0.5246134945131737,0.49114312829480766,0.4546318879601893,0.4176108302081654,0.3831322800009565,0.35349818152883605,0.3299234040351026,0.31237556740392286,0.2995956043715908,0.28999411972174727,0.281689343281791,0.2731388182598153,0.2634732085615537,0.2525094259310587,0.24102095567122003,0.2301040836517374,0.2209612656886106,0.21457084971918453,0.21136873407994147,0.21137023906001848,0.21392924686645318,0.21800571431082238,0.22243350586008342,0.22617841187940987,0.2286779627415633,0.2298502402532453,0.23012386220280198,0.23029616200098232,0.23130358826195688,0.23391709673916236,0.23854521468114404,0.24508306348390613,0.2529079853494656,0.26077606921294616,0.2679457718806551,0.27327362493232316,0.27591258502552085,0.27551980869794895,0.2718398167126552,0.26642901514422795,0.2600654814131515,0.2534388825018449,0.24705838902700888,0.24079212863065524,0.23534639966092116,0.2303045851784968,0.22497059429736113,0.21859696935606882,0.21028704435359385,0.20035472296610185,0.18882571248265978,0.17601755827811774,0.16251165780512283,0.14879890044498723,0.1360443901931242,0.1247145310685584,0.11491780532914157,0.10642634625417688,0.09859838961160167,0.09117827991306182,0.08361694606263266,0.07553032024471697,0.06682114182234025,0.05756682017548554,0.0484954893029629,0.04014613028706287,0.03296945063129192,0.027215937390503608,0.022763222045766307,0.019555076457548812,0.01711900070711235,0.014911296917572191,0.012485592944646991,0.009511562149583831,0.006252693025746004,0.00296458168087244,1.1285700534807297e-05,-0.0022447515012096264,-0.0036613647566425453,-0.003971759089677,-0.0033728567378898786,-0.0022479428039291448,-0.0010349091074487444,-0.00022254794528136086,0.00025054813798430656,0.00037008454295792213,0.00026844393705020733,0.0001749332863121391,0.00017850854269650706,0.0007311325390350316,0.0018459847619558662,0.0033721591009210888,0.005064559620292994,0.006499134790266499,0.007763402261674398,0.008757922533393548,0.00946702083112043,0.009954185954273848,0.010145003955527528,0.010431912060605335,0.010903150422083892,0.011572249695510812,0.012389733589406931,0.013126954183540934,0.013867062935362388,0.014483664992999332,0.014841692272582517,0.014825281224540014,0.014277146424620258,0.01331175572778252,0.011980110726245777,0.010385216511919487,0.008672862636292678,0.006958592807231741,0.005458631329842749,0.004248243122461712,0.003306901380373896,0.0025204440480453404,0.00169837294161911,0.0006636839171699721,-0.0007497160607937722,-0.002615909637897101,-0.004875475816459475,-0.007427236883479162,-0.009847259260227621,-0.011704719001834434,-0.012599297018183419,-0.012271395680964288,-0.010877202886287416,-0.008436079367469844,-0.005228678199037657,-0.0016219497755083755,0.0020125595983436625,0.005109650143908707,0.0077902328404329665,0.01026932744061311,0.012949547291255617,0.01629651487765162,0.020344297496094947,0.025626433544846266,0.032304782942659954,0.040305241640146865,0.0492777896620195,0.058332800104715934,0.06689485630117674,0.07419022348019008,0.07950097633584843,0.08225906444638738,0.08195133096168582,0.07873747135187942,0.07305502008422599,0.06568233123005113,0.05761161800375193,0.04971455743085317,0.04297838038108173,0.03796486419271668,0.03476578858505042,0.03296417156111646,0.031607022899267506,0.029755654286175905,0.026493963782748344,0.021290809540377285,0.014221929438403742,0.005952074350123236,-0.0019796643828633143,-0.007654697500951255,-0.009062495303911861,-0.004520312684308983,0.006825113467093561,0.02508900131473298,0.04931364554886124,0.07767226687353347,0.10779198766589501,0.13706900123620758,0.16356795691814818,0.18612928996610453,0.20466137451536182,0.220104288016099,0.2339849791102425,0.24841193390520777,0.26517049994576203,0.2852670320318575,0.3085502518138988,0.33342241446722376,0.35757252534911715,0.37803877100170136,0.39192165988564986,0.3969962156116986,0.39199121940404064,0.3774204936616928,0.3550482178402602,0.3276470214687876,0.2984273446341914,0.27022175361642764,0.24550984037230214,0.22559409671709515,0.21064510604478037,0.1998584736566842,0.19163079848473,0.18453527029249048,0.17723837327131656,0.16894196504729175,0.15950297569465302,0.14924889710159106,0.13916840024757493,0.13027480747856948,0.12343340792176244,0.11914747773262187,0.11737522079297819,0.11779326825559623,0.11969917176124008,0.12226530473930067,0.12474330760888472,0.12659611703241064,0.12772106978025832,0.12835162051901886,0.1290067380124752,0.13033913748514758,0.1329502344362788,0.13721739522995277,0.14318286122358023,0.15051981811923604,0.15859617889803465,0.16657484650841053,0.17378520180559026,0.17965658194807727,0.18395719236971553,0.18685322031092172,0.18876622483902245,0.1905814563123098,0.19292351155569684,0.19616219450842165,0.2003024654963278,0.20483858460751378,0.20934062248084048,0.21288939979404117,0.2145770986905397,0.2137517106817339,0.2100243576730418,0.20397886493103892,0.1961681835516114,0.18733209442419282,0.17824952112123438,0.16947536318426754,0.1616624696898615,0.15483450538632937,0.14868948020946918,0.14274733156073488,0.13647480639691734,0.1296765826622549,0.12218601786923211,0.11405745495342325,0.1055450036255802,0.09699876935396733,0.08889234963478047,0.08143545605932676,0.07464034893950687,0.0,0.0,0.0,0.0,0.0,0.0,0.0,0.0,0.0,0.0,0.0,0.0,0.0,0.0,0.0,0.0,0.0,0.0,0.0,0.0,0.0,0.0,0.0,0.0,0.0,0.0,0.0,0.0,0.0,0.0
0.39259683346753493,0.4892203672374174,0.5693067884787993,0.6274656010804339,0.6616376765699353,0.6731278607367043,0.6664280744078707,0.6479290647276945,0.6244742446368454,0.6018805447181517,0.5836340601922538,0.5708056860108351,0.5619107442852082,0.5536762922333424,0.5421234128663681,0.5235375863801889,0.4960017912121661,0.45954349688008655,0.41617705325055293,0.3693509593107322,0.3228916923824769,0.2805855025952958,0.24502011525119388,0.21721656912373163,0.19657850575509628,0.1810677920776079,0.1683057726418769,0.15590498689304888,0.1421695858855292,0.12645729266399627,0.10911100323785237,0.0916016474249441,0.07582688907818966,0.06363631679547925,0.05633607957289623,0.054270301040572774,0.05698907189021563,0.06325564207338127,0.07140835034495285,0.07977565607418904,0.08700175128834514,0.09248760484932009,0.09641333667091553,0.09960206866023193,0.10321523257548186,0.10833319402160074,0.11569729899834852,0.1255197508148534,0.1373905556673075,0.15038473203999486,0.1630762237863222,0.1746748516083789,0.18438343360722514,0.19191586403487038,0.1975542315045079,0.20160922398948122,0.20573261559612732,0.21071992053932773,0.21695968224753037,0.22435400019517168,0.23194226145468927,0.23948455465652596,0.2458808860874355,0.2500405187995688,0.2511537688858355,0.2485000982817004,0.24288492331816425,0.23494397060028066,0.2255722845102263,0.21575923143913392,0.20610386528691238,0.19768163369028002,0.19074516630369107,0.18512943536225956,0.1803646939924323,0.17563816721488895,0.1706774634896508,0.16514355543633719,0.15895240969708796,0.15227864383796094,0.14530561068029843,0.1386878607545176,0.13283791899794745,0.1279993109440921,0.1241925936834896,0.12107565684957523,0.11846943141754934,0.11604287263307131,0.11352600107205775,0.11077674626281267,0.10764596511614637,0.10446580468608771,0.10151704009834556,0.09908294134683047,0.09736089884213572,0.09622623917336401,0.09576781180586766,0.09578240617589338,0.09600184767200236,0.0961741939990722,0.09591838123062527,0.09547664518653606,0.09500836881711318,0.0947600042583868,0.0949874891560087,0.09560854058065896,0.09700399394865789,0.09911957841431827,0.1017587936413225,0.10463888745172994,0.1071424060259053,0.10941433247851776,0.11136208767017772,0.11297401574180345,0.11429028574745118,0.11498830724880206,0.11555416345278681,0.11607039338131293,0.11658215644895543,0.11710941642061518,0.11728313328999297,0.11755593963386184,0.11803917188596917,0.11882049724190077,0.11992854709377916,0.12092778032363642,0.12212270495682484,0.12346765572928473,0.1249152783020855,0.12642684086657952,0.1275995721094389,0.12880145479901448,0.1300962523067089,0.1314974856502397,0.13292513463937985,0.13383806385248728,0.1343684885722864,0.13441155806768443,0.133959847483216,0.13313357208045448,0.13189172293907336,0.1308753627086632,0.13053979002439467,0.13128233250887456,0.13334200952152914,0.13651960591002263,0.140831182172214,0.14593869719663688,0.15141528004493116,0.15685118739158932,0.1614514955941666,0.16564897186125493,0.169828148745073,0.17455177144857623,0.18036036526164956,0.18677027390550066,0.19455624100724644,0.20376650030578933,0.21420490639939932,0.22542766739833472,0.2360560822968929,0.24609211874032336,0.2552259233242798,0.26334563388810706,0.27049496953501984,0.2761325987933985,0.2810840796970491,0.28581123879138287,0.2907478532578485,0.2961674684100126,0.3015292552913993,0.30710918600870907,0.3126266952534468,0.31768248661887316,0.3218399672850054,0.324300257646626,0.32533318749555395,0.325204480346127,0.32445418077291777,0.3237482592986098,0.3232788583872087,0.3236828744744623,0.32481496230039625,0.3259197412920241,0.32565655131221416,0.32198062858690724,0.313513317284948,0.2991055195279099,0.27857006562806425,0.2530437629825099,0.22481974239318422,0.19826960080642017,0.17850453708175007,0.17094546042100503,0.18043097465280566,0.20994708462724807,0.2608933825567262,0.3316520338952656,0.4178060701787213,0.5125727107143138,0.6073296900182986,0.6939930239159372,0.7652892506745482,0.8162050257913138,0.8447144467758217,0.8515388998529924,0.8409570571621917,0.8187012955091029,0.7910331013723393,0.7634595851405281,0.7393347575860726,0.7205669715368157,0.7064811539250324,0.694734162473457,0.6822047235052344,0.6655964836981264,0.6434625752429879,0.6154459699867598,0.5826852838896553,0.5474462844496438,0.5121585205438857,0.4798119485077839,0.4522051030429534,0.4299938899679443,0.41268784539405334,0.39863452539796407,0.38646305786467705,0.3744772475810882,0.3614606725581448,0.3469574526534023,0.3311074690553315,0.3152962095920292,0.3008857610310385,0.28920103385941204,0.28122705991275126,0.277235127421592,0.27730919563605366,0.28058017250077083,0.28573777597517724,0.2913512083267979,0.29603634767324516,0.2993074188795364,0.30098353908150505,0.30143969213127036,0.3014753567408446,0.30190848635406775,0.3038569942332909,0.30784551905110186,0.313851720372991,0.3212864817695406,0.32874910098354554,0.33555378881773396,0.34045571824445137,0.34246957741076794,0.34109760679823664,0.33585801999918935,0.3282564465676289,0.3191409227610801,0.3093755760601316,0.29970120167494463,0.2901214918091451,0.281613981891241,0.273915135074426,0.2663993996570709,0.25830479655165256,0.24854653432255933,0.2374619559014878,0.2249872029071852,0.21137754927064217,0.19718376256285147,0.0,0.0,0.0,0.0,0.0,0.0,0.0,0.0,0.0,0.0,0.0,0.0,0.0,0.0,0.0,0.0,0.0,0.0,0.0,0.0,0.0,0.0,0.0,0.0,0.0,0.0,0.0,0.0,0.0,0.0
0.8447144467758217,0.8515388998529924,0.8409570571621917,0.8187012955091029,0.7910331013723393,0.7634595851405281,0.7393347575860726,0.7205669715368157,0.7064811539250324,0.694734162473457,0.6822047235052344,0.6655964836981264,0.6434625752429879,0.6154459699867598,0.5826852838896553,0.5474462844496438,0.5121585205438857,0.4798119485077839,0.4522051030429534,0.4299938899679443,0.41268784539405334,0.39863452539796407,0.38646305786467705,0.3744772475810882,0.3614606725581448,0.3469574526534023,0.3311074690553315,0.3152962095920292,0.3008857610310385,0.28920103385941204,0.28122705991275126,0.277235127421592,0.27730919563605366,0.28058017250077083,0.28573777597517724,0.2913512083267979,0.29603634767324516,0.2993074188795364,0.30098353908150505,0.30143969213127036,0.3014753567408446,0.30190848635406775,0.3038569942332909,0.30784551905110186,0.313851720372991,0.3212864817695406,0.32874910098354554,0.33555378881773396,0.34045571824445137,0.34246957741076794,0.34109760679823664,0.33585801999918935,0.3282564465676289,0.3191409227610801,0.3093755760601316,0.29970120167494463,0.2901214918091451,0.281613981891241,0.273915135074426,0.2663993996570709,0.25830479655165256,0.24854653432255933,0.2374619559014878,0.2249872029071852,0.21137754927064217,0.19718376256285147,0.182791040046703,0.1694167062091196,0.15736932947281201,0.14646490311094845,0.13606272857405036,0.12499440181523198,0.11268067374953927,0.09831524984588369,0.08155471039405886,0.06274078137718127,0.04276868710943052,0.02365117417349065,0.007296995770727669,-0.004534546926783276,-0.010581165819687825,-0.010481677160583189,-0.004345323196152011,0.006595461367184652,0.02050709428162909,0.03535051538872133,0.04915413676890739,0.060904646267695935,0.07000045599307389,0.07655498311489407,0.08128219659713047,0.08510497535700245,0.08939999043610783,0.09494324898809073,0.10199808757181052,0.11028024395163241,0.11888702111721143,0.12710725183043498,0.1338278137459541,0.13808391815682425,0.13927829130613434,0.13711847473619423,0.13230552858852296,0.1255306305635675,0.11764499406356552,0.10950396608606289,0.1016490822153203,0.09482105027675757,0.08909863364066038,0.08422455572438894,0.07972964086599141,0.07493614058470308,0.06967605379192274,0.06368811539780629,0.05693967102258772,0.04964407957669269,0.042093206170030845,0.034977907982461476,0.02872043662406887,0.02356886451745168,0.019558518287393963,0.016450451331071383,0.014077631451338446,0.012068013671785161,0.010078656698225712,0.007887665585268828,0.005406951771542048,0.0028030197744172,0.0002735357908459659,-0.001971517174416929,-0.0037831871168563067,-0.005115326329326525,-0.006062985198813781,-0.006800504662825095,-0.007532304758472643,-0.008421006900218245,-0.009542332034855713,-0.010789217258012957,-0.011968464033120638,-0.01281445960948579,-0.013058826683580183,-0.01254670653930726,-0.011140077974897949,-0.008948672099469642,-0.0062289268233474415,-0.00331539938234569,-0.0005918074809400562,0.0018035574280153806,0.0037443236361814243,0.005240511421603273,0.006428027918888804,0.007450835749531825,0.008671721229851381,0.010242789564631512,0.012196875140550758,0.014445638093767673,0.01671931387080548,0.018902095676656582,0.020733802608041824,0.021976989545262362,0.02246324826864654,0.02202857481408274,0.020837587555549562,0.019045641444035095,0.016874499289938418,0.01457344525541345,0.012296476211529354,0.010311984196958182,0.008726244047680931,0.00754533331193877,0.00668364224218036,0.0059311933032565505,0.005184637129945856,0.004326616987451176,0.003303907128043992,0.0021381816282051696,0.00087069733718977,-0.00033435249229819743,-0.001338686049271143,-0.002041101002164301,-0.0024072789857700195,-0.002505381457114709,-0.0024148694968108685,-0.0022485383656250203,-0.002104103379175717,-0.00203610433547925,-0.0020035608552764197,-0.002000058901063048,-0.0019716330352175333,-0.001868587607316732,-0.001664929685188479,-0.0012623815511896986,-0.0008135172574904015,-0.0004451405420115244,-0.0002852905640823305,-0.00040612119773520837,-0.0009290872906769986,-0.001516011574251578,-0.0017439279604791762,-0.0011054267913690914,0.0008526872897180629,0.003962519121813666,0.008620042913120197,0.014775160627935996,0.022161524890469297,0.030303086839438536,0.03818213314475178,0.04544620245662841,0.05163356721294511,0.0564458287599866,0.05975348638915899,0.06125245867371896,0.061408111652289245,0.060651592442926484,0.05949241813607968,0.0584027302674509,0.057693079728689034,0.05745881509657243,0.05752616054221456,0.05753102334687568,0.0570519741457428,0.05576549738366559,0.053587568170867975,0.05070385673022484,0.04751819423694226,0.04450193118521452,0.04199612833540724,0.0400387152846829,0.03826153144270736,0.03590721558495401,0.03195188822468625,0.025301936514012885,0.015012050987142447,0.000506610049055856,-0.018227687416855903,-0.04046288314594873,-0.0645656409417666,-0.08788384669706262,-0.10674157755045496,-0.11665945747030798,-0.1128776545165837,-0.09119654662580692,-0.04903349767284351,0.013554084243674557,0.0931907716346417,0.18317227856971832,0.27430249040303106,0.3565236704339164,0.42101697001200417,0.4622294940247251,0.4792222116560203,0.47586037511572493,0.4596819228255169,0.4396762740010044,0.42358864705954524,0.41555580405604425,0.41481607288510663,0.41603431251262046,0.4110012662528532,0.39143517578271947,0.35188939645606826,0.29183197063713423,0.21638532503638905,0.13508434836977368,0.059467309294369705,0.0,0.0,0.0,0.0,0.0,0.0,0.0,0.0,0.0,0.0,0.0,0.0,0.0,0.0,0.0,0.0,0.0,0.0,0.0,0.0,0.0,0.0,0.0,0.0,0.0,0.0,0.0,0.0,0.0,0.0,0.0,0.0,0.0,0.0,0.0
0.3565236704339164,0.42101697001200417,0.4622294940247251,0.4792222116560203,0.47586037511572493,0.4596819228255169,0.4396762740010044,0.42358864705954524,0.41555580405604425,0.41481607288510663,0.41603431251262046,0.4110012662528532,0.39143517578271947,0.35188939645606826,0.29183197063713423,0.21638532503638905,0.13508434836977368,0.059467309294369705,0.0,0.0,0.0,0.0,0.0,0.0,0.0,0.0,0.0,0.0,0.0,0.0,0.0,0.0,0.0,0.0,0.0,0.0,0.0,0.0,0.0,0.0,0.0,0.0,0.0,0.0,0.0,0.0,0.0,0.0,0.0,0.0,0.0,0.0,0.0,0.0,0.0,0.0,0.0,0.0,0.0,0.0,0.0,0.0,0.0,0.0,0.0,0.0,0.0,0.0,0.0,0.0,0.0,0.0,0.0,0.0,0.0,0.0,0.0,0.0,0.0,0.0,0.0,0.0,0.0,0.0,0.0,0.0,0.0,0.0,0.0,0.0,0.0,0.0,0.0,0.0,0.0,0.0,0.0,0.0,0.0,0.0,0.0,0.0,0.0,0.0,0.0,0.0,0.0,0.0,0.0,0.0,0.0,0.0,0.0,0.0,0.0,0.0,0.0,0.0,0.0,0.0,0.0,0.0,0.0,0.0,0.0,0.0,0.0,0.0,0.0,0.0,0.0,0.0,0.0,0.0,0.0,0.0,0.0,0.0,0.0,0.0,0.0,0.0,0.0,0.0,0.0,0.0,0.0,0.0,0.0,0.0,0.0,0.0,0.0,0.0,0.0,0.0,0.0,0.0,0.0,0.0,0.0,0.0,0.0,0.0,0.0,0.0,0.0,0.0,0.0,0.0,0.0,0.0,0.0,0.0,0.0,0.0,0.0,0.0,0.0,0.0,0.0,0.0,0.0,0.0,0.0,0.0,0.0,0.0,0.0,0.0,0.0,0.0,0.0,0.0,0.0,0.0,0.0,0.0,0.0,0.0,0.0,0.0,0.0,0.0,0.0,0.0,0.0,0.0,0.0,0.0,0.0,0.0,0.0,0.0,0.0,0.0,0.0,0.0,0.0,0.0,0.0,0.0,0.0,0.0,0.0,0.0,0.0,0.0,0.0,0.0,0.0,0.0,0.0,0.0,0.0,0.0,0.0,0.0,0.0,0.0,0.0,0.0,0.0,0.0,0.0,0.0,0.0,0.0,0.0,0.0,0.0,0.0,0.0,0.0,0.0,0.0,0.0,0.0,0.0,0.0,0.0,0.0,0.0,0.0,0.0,0.0,0.0,0.0,0.0,0.0,0.0,0.0,0.0,0.0,0.0,0.0,0.0,0.0,0.0,0.0,0.0,0.0,0.0,0.0,0.0,0.0,0.0,0.0,0.0,0.0,0.0,0.0,0.0,0.0,0.0,0.0,0.0,0.0,0.0,0.0
0.07132451223247946,0.07399386893828057,0.0762768836476614,0.07771977128530093,0.07782500014250783,0.07598464035831168,0.07209356281488252,0.06622013159909455,0.058781863029803094,0.05050907784563444,0.042100107646234425,0.03467603704022147,0.028967571639764995,0.025247691666876446,0.023193155548761037,0.02163069283776738,0.019557233765558752,0.01577533022244821,0.009482428274987234,0.0006224722400071021,-0.010155382808925329,-0.020686324918998418,-0.028194539607750545,-0.029564525079350378,-0.021948211068746837,-0.0036377979490013253,0.026203189445570273,0.06662639983481934,0.11510733006483986,0.16787495170573646,0.22021973265324457,0.26806683270937826,0.30800096424717677,0.33800180622153525,0.35769811448021976,0.3679849610205074,0.3715505603386643,0.37150848143716536,0.3708559235048027,0.37177769367390245,0.37480928915815326,0.37973086232294295,0.3848760313173787,0.38779674902275824,0.3858572728675851,0.37646700857374304,0.35882215844713367,0.333242248265164,0.3014346769517973,0.26619718567952066,0.23051239913157043,0.19816618880833567,0.17219283146538805,0.1546877622842179,0.14653709849145616,0.1469780000419002,0.1549918462180045,0.16862544482060615,0.1856305778575489,0.20379366407729627,0.220826064811524,0.2356112097133453,0.2473680555560571,0.255818933284263,0.2610502296631364,0.26303773234086725,0.2625007624244675,0.2600691281599143,0.2564232286143757,0.2522456674561287,0.2478960327616583,0.2442343250451531,0.24193169004192927,0.24155097986805005,0.24344110524912102,0.2473965356353367,0.2533577697026467,0.260901110421309,0.2694281863024209,0.27826018594703744,0.2864274280740598,0.2938714894457197,0.3005522910787625,0.30676700210961,0.3130792666449537,0.3197449310245793,0.3279097043338011,0.33795701954986757,0.3498347300258549,0.36302035990943515,0.3761768607419115,0.3887092633540977,0.3995285002260493,0.4077637001091694,0.41296145317391664,0.41476652100283584,0.41426194153134416,0.41233538588790786,0.40992915410535347,0.4078140818720075,0.40606897242103185,0.40512401973484763,0.4046470918831859,0.4040446764261959,0.4026667105700984,0.39973444567316563,0.39535133605106243,0.38971920170046664,0.38331027241496624,0.376712166317832,0.37015858260589457,0.3643191992118112,0.35928809393449807,0.35488764679448204,0.3507576220655656,0.3461799833101099,0.3412095306924938,0.3357091283161827,0.3297183553042261,0.3234334623757467,0.3168520479067464,0.31064466770039234,0.3050665435119185,0.30023165615821196,0.2961093026859279,0.292278240585195,0.28888794767460807,0.2857479884613124,0.2826847984389028,0.2795792717334447,0.27611465685475245,0.27267265996555795,0.26931647786054413,0.266097857215647,0.2630492407809615,0.2599189666999144,0.25706127981215,0.254412419274093,0.2518600470662973,0.24929023315387075,0.24637214407847796,0.24349854668263035,0.2406970230904488,0.2380149268115664,0.23553122552678005,0.23309055656595354,0.23120888550600446,0.22987365942417068,0.22895391264688167,0.22824523286483364,0.22728918222296896,0.2262819003739552,0.225004361599721,0.22326483497482835,0.22095924020288724,0.21789153521374002,0.21455551117470995,0.211053520343472,0.20745474131568367,0.20380998327856303,0.1999764786222429,0.19635995324197775,0.19295414629728308,0.18972439022264945,0.1866607263542388,0.1836322891820882,0.18105016797727627,0.17893884563763385,0.17723925521563308,0.17581694662774391,0.17434337803616312,0.17285182386947237,0.17100862336021594,0.16846836619351926,0.16497316690124908,0.1603363580519925,0.1548724662782786,0.14874863215505643,0.14219734355291994,0.13548878418200294,0.12883095346118043,0.12261301426095168,0.11684207008001589,0.1113771378878748,0.10600440146275682,0.10049783067523953,0.09486858469557176,0.08897837042138988,0.08276364632434022,0.07627368724170115,0.06932209635492546,0.06260110719534652,0.056447824441775506,0.05108930993166116,0.04654297302064549,0.04188721527722879,0.03742085159068035,0.03289197580679762,0.028126192031061585,0.023085751828556846,0.017294263541270335,0.011616917355281624,0.006531142254487639,0.0024586692852974603,-0.000371469363531796,-0.002486768741878761,-0.0036375001474451022,-0.0041123947630947975,-0.0042204242018616354,-0.004207834732541594,-0.004567199939213794,-0.005009339946986137,-0.005589625767159467,-0.006486178561963386,-0.008044200101551394,-0.01091832152830657,-0.0153268838333278,-0.02153918048020111,-0.029470771331237534,-0.03858009350311254,-0.0480375835510415,-0.05650995602320689,-0.06301944740596112,-0.06711479904554703,-0.06911598690467369,-0.07021939549529817,-0.07203823650622954,-0.07650890720060198,-0.0851056765177102,-0.0981609183639228,-0.11438802201450762,-0.1305101698026097,-0.14178352435966537,-0.1425460065628196,-0.1272058498231719,-0.09141523531626003,-0.03303479073330285,0.04690567027236157,0.14406201214967435,0.25118136690183474,0.0,0.0,0.0,0.0,0.0,0.0,0.0,0.0,0.0,0.0,0.0,0.0,0.0,0.0,0.0,0.0,0.0,0.0,0.0,0.0,0.0,0.0,0.0,0.0,0.0,0.0,0.0,0.0,0.0,0.0,0.0,0.0,0.0,0.0,0.0,0.0,0.0,0.0,0.0,0.0,0.0,0.0,0.0,0.0,0.0,0.0,0.0,0.0,0.0,0.0,0.0,0.0,0.0,0.0,0.0,0.0,0.0,0.0,0.0,0.0
0.45809674761391056,0.5397066971706507,0.597761121714198,0.6295685836268413,0.6361010754234772,0.6217607278901977,0.5931120363186182,0.5575009450688642,0.5215575354458163,0.48993259906601,0.46476813753648205,0.4455362279829951,0.4296657563810348,0.41354648726479126,0.3936395993996154,0.36756196953651343,0.33461867413304114,0.29592379352062764,0.25402614727716705,0.21219770724366965,0.17361744710843105,0.14064407531649983,0.11436545940964676,0.09450580728954282,0.07969834134373609,0.0679015115827373,0.05704822438625872,0.04555094769944516,0.032641611576833644,0.01852109575906644,0.004013003988473135,-0.009585227183106051,-0.020972879333918896,-0.029222584135875536,-0.03393162443641539,-0.03558846839679096,-0.03513109586415903,-0.03376497185157201,-0.03261964692524901,-0.03232708933209047,-0.0331845024566169,-0.034740801419200946,-0.036063641366544094,-0.03601670971462249,-0.03346713663100542,-0.027991884069181495,-0.01959889392847555,-0.008899609585763775,0.003020391941371918,0.014767720236582061,0.025289593170578373,0.033599358874591034,0.03917892689938266,0.042057493597366324,0.04246162465030727,0.04175600548334285,0.040678255045552315,0.03974842810934921,0.03922095580679326,0.03885431695147153,0.03889837434043287,0.03888302598194158,0.03822171570722099,0.03638441801622019,0.032843383580046015,0.027914725018645427,0.021740175511565114,0.01464668732624287,0.007109460116367411,-0.00045093656323807736,-0.007310708169746716,-0.01318812893810309,-0.018065636348323852,-0.022165497783485363,-0.025915606541770716,-0.029655237071791414,-0.033751870307235476,-0.03840750318271126,-0.04359348357208114,-0.049072074640713836,-0.05438296727269835,-0.05904995256813778,-0.06267146998863636,-0.06502146936067692,-0.06609876167161148,-0.06613959250633236,-0.06550336036763266,-0.06459452230775178,-0.06376001089808629,-0.06320601213200844,-0.062984624586276,-0.06295657842937559,-0.06287913347751783,-0.06249855243549568,-0.061634481263367236,-0.060260030117160315,-0.05845283956126316,-0.056387927887064634,-0.05427810758108563,-0.05232559419595897,-0.0506033039712922,-0.04908107971626611,-0.04762736492909036,-0.04605766272667557,-0.0442426640727066,-0.04201560385457531,-0.03936584898143219,-0.03638722430830647,-0.033247265965765535,-0.030188523089503722,-0.027316025089035422,-0.024728084296888192,-0.022449050696182235,-0.020436869204855494,-0.018662163532879816,-0.016964132143833223,-0.015253838597987093,-0.013480443156163702,-0.011637312807095214,-0.009807013579236395,-0.007991191160893193,-0.006218781343274195,-0.004502562431998096,-0.0028377564093349356,-0.0012552468358237878,0.0003037783105666355,0.0018987748592901752,0.0035819349051079996,0.005373747330439185,0.007181479912158138,0.008967780558906157,0.010675123400779677,0.012238217245510134,0.013585251070213302,0.01456418212679401,0.015167270569175755,0.015454243487945154,0.015543577198055896,0.015577560914358623,0.0156332903851379,0.01580757534020089,0.016178271528874286,0.01677496101725819,0.01756987075850395,0.01846755752403814,0.019350785828034206,0.020159044882487747,0.020873601031165274,0.021515548022150475,0.022130449852045608,0.022757004316169147,0.02347868978333847,0.02436750141751868,0.025461225285797,0.026762115605698973,0.028186346558464713,0.029668135625308237,0.031141484243941867,0.0325567054642654,0.033848738921790286,0.03507455757518126,0.03635062214082309,0.03782969696331915,0.039652185642733796,0.041790143543934906,0.0443182290866609,0.0471920175637136,0.05029696690014062,0.05346867696811381,0.056341068987558786,0.05897630926381798,0.061488613673071506,0.06414085733593282,0.06728516829349382,0.07098833663528092,0.07577313031791882,0.08188855516094934,0.08936421439593269,0.09792457993944988,0.10675039547593662,0.11514026410485013,0.12215183023783416,0.12687020166189708,0.12856399158540593,0.12669444803986699,0.12140520591195988,0.11323026270443842,0.1030996977203804,0.09217359983994085,0.0815255994275977,0.0722050671047954,0.06481455127602588,0.05946647643867597,0.05578320809447576,0.052950567015244115,0.05010927794208934,0.04644617617487893,0.04147404923995221,0.03519379694696882,0.028076951894909514,0.02119466266428138,0.015841340482146467,0.013311059315270343,0.01460438579946187,0.020112795094724373,0.029718404966310286,0.04260861658977876,0.05749735303024603,0.07290577229079102,0.0873926856491504,0.10021544920045108,0.11125859286407927,0.12116780175353298,0.1312071587821202,0.14279979019235656,0.15755558946597625,0.17645136401593883,0.19957897962235194,0.22595733136902546,0.2534046253331952,0.2793536177554601,0.3008568007457267,0.31526047601497004,0.32070750395593073,0.31629453147712977,0.3028198185732499,0.2821187970653658,0.25685720407025703,0.23001554837055094,0.2041507002452086,0.18152641731212277,0.1632674624952364,0.14946329088280264,0.13932359278517117,0.1313239791015317,0.1241841523000037,0.11667418011622449,0.10807575786722604,0.09830537075924108,0.0877295751948734,0.0,0.0,0.0,0.0,0.0,0.0,0.0,0.0,0.0,0.0,0.0,0.0,0.0,0.0,0.0,0.0,0.0,0.0,0.0,0.0,0.0,0.0,0.0,0.0,0.0,0.0,0.0,0.0,0.0,0.0,0.0,0.0,0.0,0.0,0.0,0.0,0.0,0.0,0.0,0.0,0.0,0.0,0.0,0.0,0.0,0.0,0.0,0.0,0.0,0.0,0.0,0.0,0.0,0.0,0.0,0.0,0.0,0.0,0.0,0.0
0.8087686050737058,0.8421318506833289,0.844680384304543,0.8210037946153004,0.7784473449547676,0.7256939155543483,0.6710661054273428,0.6209001267096913,0.5791017480776672,0.5464588394470672,0.5212120338077589,0.5000003601713566,0.4788882499634482,0.4549282986253967,0.4264818306021121,0.3936233035701347,0.3579235656242942,0.3217520834777551,0.2878841914137889,0.25842543711611654,0.2344497557507195,0.21584677107723177,0.20141732063483261,0.1895433956763795,0.17840714384452785,0.16658176914561046,0.15337255495644758,0.13888226724079458,0.12408574857588112,0.11030167328471815,0.09889223456643347,0.09089833883566338,0.08674653005297794,0.08626445624103622,0.08859171208795666,0.09247538453497041,0.09659718855721526,0.09989110155609592,0.10182731341055481,0.10244182141455592,0.1022997477756982,0.10229603827876711,0.10338686987077474,0.10627412907226162,0.11122700976520569,0.11799149471652853,0.1258502681293616,0.13359742690238968,0.14057299117564734,0.14585037549669044,0.14883619060084624,0.1494044979799561,0.1474748652104258,0.1444992135212362,0.14112089872829475,0.13781659212829875,0.1348559300803524,0.1319545114992519,0.12958472973625265,0.12728864068481552,0.12441542780900687,0.12030736218074864,0.11421473384361189,0.1064059904783586,0.09692794696898518,0.08609587134259089,0.07448218219665254,0.06265046313168476,0.051717355760334247,0.04226970278987684,0.03459372252495585,0.02865700221255645,0.024047838459849886,0.020491037154135795,0.017423765664193895,0.014340863414039041,0.010924350166308385,0.007032845101857588,0.0029902759232528324,-0.0008856458008954718,-0.004245800338676905,-0.00680830187993968,-0.008480771518494025,-0.009212658744318062,-0.009214496669752032,-0.008806525651055493,-0.00832444930347426,-0.008078881261294782,-0.008122037879485379,-0.008480153660645917,-0.009089573193247436,-0.00984059672700884,-0.010674147912223209,-0.01144342765849592,-0.012174424562718566,-0.012948022592937874,-0.013843594069393082,-0.014945651631964442,-0.016062829572774922,-0.01704937819508158,-0.017711339400198457,-0.017846591411777323,-0.01738001053681324,-0.016099676358204616,-0.014082915596471129,-0.011538291130904444,-0.008752625408025816,-0.006104349425982986,-0.0037160689399110486,-0.0017839584119399398,-0.0004233398453923357,0.0003413405957256909,0.0004934296117236024,0.00026805455428957923,-0.00021253454816223317,-0.0008381123096944212,-0.0015131513316363045,-0.002214077807590593,-0.002784925926333756,-0.0031772912574925343,-0.0033705213794783437,-0.003367643258998299,-0.003233503364394492,-0.0029480365157052,-0.002539255208078131,-0.0020377003947289634,-0.001476496638934937,-0.0009509013722127352,-0.00045312751032414275,-2.076695601003543e-05,0.0002930023066629419,0.0004146499811284253,0.00018717603563619438,-0.0004111594506769169,-0.0013877271987036432,-0.0026867656918773274,-0.0041900905030284345,-0.005774944216498454,-0.007216087763873822,-0.00830397720364317,-0.008864694956551993,-0.008794830987185295,-0.008099022200025341,-0.0068431077616962635,-0.005160376625539516,-0.0032194933807818487,-0.0011936667627516027,0.0007664571801138825,0.0025435442230071167,0.004079975634742543,0.005362459739337072,0.006407497461682091,0.007263294889363671,0.007936900047731094,0.008455215475844708,0.00884607997471629,0.0091458028401398,0.009287484584506588,0.009462296107120542,0.009845727193609547,0.010614931554684922,0.011884108218597506,0.013389730228852441,0.015244642915205369,0.01736503645193289,0.019636098984006884,0.021930948227579336,0.023946110783582657,0.025791607062859722,0.027587936854830887,0.02955756377565387,0.031977788236561173,0.034998549271141745,0.03892314785548011,0.04388638592212558,0.04985961983286922,0.05660642658826758,0.06358225635563244,0.0702240454509672,0.07582699896203607,0.07969147278700918,0.081235064939974,0.08004522484127154,0.0761376344906726,0.06986446157355632,0.061914773667754906,0.053208193671146056,0.04467646207926629,0.03723130796592912,0.031466896002516405,0.027552606196635965,0.025181322402318115,0.023575355716568998,0.021800325067714368,0.01891219192396484,0.014258690984696051,0.00772900462844715,-0.00016512276796731932,-0.0080038120920046,-0.013773494750890724,-0.015111608339440351,-0.009723313145423821,0.0040345459386830216,0.02708433466626509,0.05905706229928942,0.0982550342490457,0.14177080560550454,0.18569014672217116,0.22605229247221134,0.2591225868426933,0.282046453979281,0.29326492435643287,0.29253556544055453,0.2813806945320516,0.26237878260620623,0.23876576753372333,0.21384284563441922,0.19027714413219574,0.17013139417722026,0.15431656019362636,0.14271802108152268,0.13442076691240562,0.12794657146549127,0.12201150246753541,0.11555934913084685,0.1080607808535397,0.09956322191596187,0.09049178432222481,0.08175268394120773,0.07418283895433649,0.06841108840997745,0.06470567691951809,0.06285125251448065,0.06247309623898334,0.0628963920716316,0.06343429310086832,0.06357684854608049,0.06307757930622215,0.06216514099647495,0.061314733663338096,0.0,0.0,0.0,0.0,0.0,0.0,0.0,0.0,0.0,0.0,0.0,0.0,0.0,0.0,0.0,0.0,0.0,0.0,0.0,0.0,0.0,0.0,0.0,0.0,0.0,0.0,0.0,0.0,0.0,0.0,0.0,0.0,0.0,0.0,0.0,0.0,0.0,0.0,0.0,0.0,0.0,0.0,0.0,0.0,0.0,0.0,0.0,0.0,0.0,0.0,0.0,0.0,0.0,0.0,0.0,0.0,0.0,0.0,0.0,0.0
