-0.1557377049180328,-0.1639344262295082,-0.18442622950819673,-0.18032786885245902,-0.1721311475409836,-0.1762295081967213,-0.18852459016393444,-0.18442622950819673,-0.18442622950819673,-0.18442622950819673,-0.1762295081967213,-0.18032786885245902,-0.18032786885245902,-0.19262295081967212,-0.19672131147540983,-0.18442622950819673,-0.1762295081967213,-0.1721311475409836,-0.1680327868852459,-0.1762295081967213,-0.18032786885245902,-0.19262295081967212,-0.1680327868852459,-0.18442622950819673,-0.1721311475409836,-0.1598360655737705,-0.1762295081967213,-0.1721311475409836,-0.1762295081967213,-0.20081967213114754,-0.18852459016393444,-0.20081967213114754,-0.19262295081967212,-0.2254098360655738,-0.20901639344262296,-0.2254098360655738,-0.2295081967213115,-0.21311475409836067,-0.21721311475409838,-0.18852459016393444,-0.14344262295081966,-0.0819672131147541,-0.045081967213114756,-0.06557377049180328,-0.0819672131147541,-0.14344262295081966,-0.2459016393442623,-0.3811475409836066,-0.5040983606557377,-0.5983606557377049,-0.6721311475409836,-0.7049180327868853,-0.7172131147540983,-0.680327868852459,-0.6762295081967213,-0.7131147540983607,-0.7295081967213115,-0.6926229508196722,-0.6229508196721312,-0.5860655737704918,-0.5655737704918032,-0.5245901639344263,-0.47540983606557374,-0.47540983606557374,-0.47540983606557374,-0.4426229508196722,-0.42622950819672134,-0.38934426229508196,-0.36885245901639346,-0.35655737704918034,-0.3401639344262295,-0.3483606557377049,-0.3360655737704918,-0.3073770491803279,-0.24180327868852458,-0.20901639344262296,-0.14344262295081966,-0.09426229508196722,-0.07377049180327869,-0.05737704918032788,-0.045081967213114756,-0.02459016393442623,-0.04098360655737705,-0.01639344262295082,-0.02459016393442623,-0.004098360655737705,0.012295081967213115,0.0,0.0,0.0,0.01639344262295082,0.012295081967213115,0.020491803278688527,0.012295081967213115,0.004098360655737705,0.004098360655737705,0.00819672131147541,0.0,0.004098360655737705,0.004098360655737705,0.01639344262295082,0.01639344262295082,0.00819672131147541,0.012295081967213115,0.00819672131147541,0.01639344262295082,0.004098360655737705,0.012295081967213115,0.004098360655737705,0.02868852459016394,0.04098360655737705,0.020491803278688527,0.02459016393442623,0.01639344262295082,0.020491803278688527,0.020491803278688527,0.045081967213114756,0.04918032786885246,0.06147540983606557,0.06967213114754099,0.09016393442622951,0.0778688524590164,0.07377049180327869,0.09016393442622951,0.0860655737704918,0.0860655737704918,0.09426229508196722,0.09426229508196722,0.09426229508196722,0.0860655737704918,0.0778688524590164,0.09016393442622951,0.0860655737704918,0.10655737704918034,0.09836065573770492,0.10245901639344263,0.09016393442622951,0.09426229508196722,0.09836065573770492,0.09426229508196722,0.11885245901639344,0.11475409836065575,0.13524590163934427,0.12704918032786885,0.10655737704918034,0.09836065573770492,0.09016393442622951,0.09836065573770492,0.09426229508196722,0.0819672131147541,0.0778688524590164,0.05737704918032788,0.06147540983606557,0.04918032786885246,0.03278688524590164,0.020491803278688527,0.012295081967213115,0.0,-0.01639344262295082,-0.045081967213114756,-0.04918032786885246,-0.07377049180327869,-0.0778688524590164,-0.09016393442622951,-0.11065573770491804,-0.10655737704918034,-0.11065573770491804,-0.11475409836065575,-0.12295081967213115,-0.12295081967213115,-0.12704918032786885,-0.13934426229508198,-0.11885245901639344,-0.13114754098360656,-0.11065573770491804,-0.11475409836065575,-0.12704918032786885,-0.11065573770491804,-0.11885245901639344,-0.13114754098360656,-0.13934426229508198,-0.12704918032786885,-0.14344262295081966,-0.14754098360655737,-0.14344262295081966,-0.13114754098360656,-0.12704918032786885,-0.11475409836065575,-0.11885245901639344,-0.11475409836065575,-0.11475409836065575,-0.11475409836065575,-0.12295081967213115,-0.11885245901639344,-0.10655737704918034,-0.13934426229508198,-0.12295081967213115,-0.14344262295081966,-0.12704918032786885,-0.15163934426229508,-0.14344262295081966,-0.13524590163934427,-0.12704918032786885,-0.12704918032786885,-0.13934426229508198,-0.13114754098360656,-0.13934426229508198,-0.14754098360655737,-0.13934426229508198,-0.13114754098360656,-0.14754098360655737,-0.11885245901639344,-0.15163934426229508,-0.15163934426229508,-0.15163934426229508,-0.1721311475409836,-0.1721311475409836,-0.1639344262295082,-0.13934426229508198,-0.13934426229508198,-0.12704918032786885,-0.12295081967213115,-0.11475409836065575,-0.11475409836065575,-0.12295081967213115,-0.13114754098360656,-0.13934426229508198,-0.15163934426229508,-0.1639344262295082,-0.15163934426229508,-0.1598360655737705,-0.1639344262295082,-0.1598360655737705,-0.1639344262295082,-0.1598360655737705,-0.1762295081967213,-0.18442622950819673,-0.20081967213114754,-0.20491803278688525,-0.21311475409836067,-0.2254098360655738,-0.20491803278688525,-0.21311475409836067,-0.2254098360655738,-0.2254098360655738,-0.23770491803278687,-0.2254098360655738,-0.2213114754098361,-0.2213114754098361,-0.23360655737704916,-0.21721311475409838,-0.2295081967213115,-0.20491803278688525,-0.19262295081967212,-0.19262295081967212,-0.19672131147540983,-0.18032786885245902,-0.19262295081967212,-0.1762295081967213,-0.18852459016393444,-0.1721311475409836,-0.1762295081967213,-0.19262295081967212,-0.1598360655737705,-0.15163934426229508,-0.12704918032786885,-0.06557377049180328,-0.00819672131147541,-0.00819672131147541,-0.05327868852459017,-0.10245901639344263,-0.1557377049180328,-0.26229508196721313,-0.4057377049180328,-0.5081967213114754,-0.6270491803278688,-0.7172131147540983,-0.7377049180327869,-0.7704918032786885,-0.8032786885245902,-0.8688524590163935,-0.8155737704918032,-0.7622950819672132,-0.7131147540983607,-0.6967213114754098,-0.6639344262295083,-0.639344262295082,-0.6434426229508197,-0.6147540983606558,-0.5778688524590164,-0.5491803278688525,-0.5122950819672131,-0.459016393442623,-0.4098360655737705,-0.39344262295081966,-0.36475409836065575,-0.3278688524590164,-0.29508196721311475,-0.26229508196721313,-0.20901639344262296,N
-0.1557377049180328,-0.26229508196721313,-0.4057377049180328,-0.5081967213114754,-0.6270491803278688,-0.7172131147540983,-0.7377049180327869,-0.7704918032786885,-0.8032786885245902,-0.8688524590163935,-0.8155737704918032,-0.7622950819672132,-0.7131147540983607,-0.6967213114754098,-0.6639344262295083,-0.639344262295082,-0.6434426229508197,-0.6147540983606558,-0.5778688524590164,-0.5491803278688525,-0.5122950819672131,-0.459016393442623,-0.4098360655737705,-0.39344262295081966,-0.36475409836065575,-0.3278688524590164,-0.29508196721311475,-0.26229508196721313,-0.20901639344262296,-0.1680327868852459,-0.11065573770491804,-0.06967213114754099,-0.04918032786885246,-0.03278688524590164,-0.02459016393442623,-0.01639344262295082,-0.00819672131147541,-0.004098360655737705,0.004098360655737705,0.0,0.0,0.004098360655737705,0.012295081967213115,-0.004098360655737705,0.012295081967213115,0.012295081967213115,0.020491803278688527,0.01639344262295082,0.04098360655737705,0.045081967213114756,0.045081967213114756,0.04918032786885246,0.04918032786885246,0.06557377049180328,0.0778688524590164,0.06967213114754099,0.0778688524590164,0.10655737704918034,0.09016393442622951,0.09426229508196722,0.11065573770491804,0.11885245901639344,0.11065573770491804,0.11475409836065575,0.12295081967213115,0.12704918032786885,0.13524590163934427,0.13524590163934427,0.13114754098360656,0.15163934426229508,0.1598360655737705,0.1680327868852459,0.1721311475409836,0.1639344262295082,0.18032786885245902,0.1762295081967213,0.1762295081967213,0.1721311475409836,0.1557377049180328,0.1680327868852459,0.1598360655737705,0.1639344262295082,0.1598360655737705,0.1680327868852459,0.1557377049180328,0.13114754098360656,0.12295081967213115,0.11475409836065575,0.11065573770491804,0.0778688524590164,0.06557377049180328,0.04918032786885246,0.045081967213114756,0.03278688524590164,0.02459016393442623,0.01639344262295082,0.004098360655737705,0.01639344262295082,0.004098360655737705,-0.012295081967213115,-0.004098360655737705,-0.020491803278688527,-0.02459016393442623,-0.02459016393442623,-0.05327868852459017,-0.06147540983606557,-0.06557377049180328,-0.06557377049180328,-0.09836065573770492,-0.10655737704918034,-0.11475409836065575,-0.12704918032786885,-0.11885245901639344,-0.11475409836065575,-0.11065573770491804,-0.10655737704918034,-0.12295081967213115,-0.12295081967213115,-0.11475409836065575,-0.11885245901639344,-0.14344262295081966,-0.14344262295081966,-0.14344262295081966,-0.14754098360655737,-0.14754098360655737,-0.13934426229508198,-0.14754098360655737,-0.1639344262295082,-0.13934426229508198,-0.1598360655737705,-0.14344262295081966,-0.14754098360655737,-0.1598360655737705,-0.14344262295081966,-0.14754098360655737,-0.1762295081967213,-0.1721311475409836,-0.15163934426229508,-0.1598360655737705,-0.15163934426229508,-0.14344262295081966,-0.15163934426229508,-0.14344262295081966,-0.14344262295081966,-0.1598360655737705,-0.1557377049180328,-0.1680327868852459,-0.1598360655737705,-0.1557377049180328,-0.1598360655737705,-0.1639344262295082,-0.18032786885245902,-0.1680327868852459,-0.1721311475409836,-0.18032786885245902,-0.20081967213114754,-0.2213114754098361,-0.2213114754098361,-0.2254098360655738,-0.23360655737704916,-0.2295081967213115,-0.2213114754098361,-0.23770491803278687,-0.2540983606557377,-0.2540983606557377,-0.23360655737704916,-0.2295081967213115,-0.24180327868852458,-0.23770491803278687,-0.24180327868852458,-0.2295081967213115,-0.21721311475409838,-0.20491803278688525,-0.21721311475409838,-0.21721311475409838,-0.19672131147540983,-0.21721311475409838,-0.21311475409836067,-0.21311475409836067,-0.20081967213114754,-0.20081967213114754,-0.18442622950819673,-0.18852459016393444,-0.1721311475409836,-0.18032786885245902,-0.18032786885245902,-0.18442622950819673,-0.1762295081967213,-0.18442622950819673,-0.1680327868852459,-0.1639344262295082,-0.1639344262295082,-0.1639344262295082,-0.1680327868852459,-0.18442622950819673,-0.1762295081967213,-0.18852459016393444,-0.18442622950819673,-0.20081967213114754,-0.18032786885245902,-0.18032786885245902,-0.18852459016393444,-0.18852459016393444,-0.19672131147540983,-0.18852459016393444,-0.19262295081967212,-0.1721311475409836,-0.19262295081967212,-0.20491803278688525,-0.18032786885245902,-0.1721311475409836,-0.1680327868852459,-0.1680327868852459,-0.1639344262295082,-0.14754098360655737,-0.1557377049180328,-0.1598360655737705,-0.14344262295081966,-0.1557377049180328,-0.14754098360655737,-0.11475409836065575,-0.0860655737704918,-0.02459016393442623,-0.02868852459016394,-0.06147540983606557,-0.13114754098360656,-0.19672131147540983,-0.3278688524590164,-0.4918032786885246,-0.5942622950819673,-0.7172131147540983,-0.7950819672131147,-0.8360655737704918,-0.8524590163934427,-0.8852459016393444,-0.918032786885246,-0.8852459016393444,-0.8524590163934427,-0.75,-0.7172131147540983,-0.6885245901639344,-0.6475409836065574,-0.6475409836065574,-0.6475409836065574,-0.6188524590163934,-0.5819672131147541,-0.5327868852459017,-0.48360655737704916,-0.4467213114754099,-0.4098360655737705,-0.3811475409836066,-0.3442622950819672,-0.3155737704918033,-0.26639344262295084,-0.21721311475409838,-0.1680327868852459,-0.11885245901639344,-0.0778688524590164,-0.05327868852459017,-0.02868852459016394,-0.012295081967213115,-0.012295081967213115,-0.00819672131147541,0.00819672131147541,0.012295081967213115,0.01639344262295082,0.03278688524590164,0.01639344262295082,0.020491803278688527,0.020491803278688527,0.02868852459016394,0.036885245901639344,0.03278688524590164,0.05737704918032788,0.05737704918032788,0.05327868852459017,0.06557377049180328,0.06557377049180328,0.07377049180327869,0.07377049180327869,0.0860655737704918,0.09426229508196722,0.10245901639344263,0.09836065573770492,0.09836065573770492,0.0860655737704918,0.09426229508196722,0.09016393442622951,0.06967213114754099,0.0819672131147541,0.07377049180327869,0.06967213114754099,0.0778688524590164,0.0860655737704918,0.07377049180327869,0.05737704918032788,0.07377049180327869,0.07377049180327869,0.0778688524590164,0.06967213114754099,N
-0.13114754098360656,-0.19672131147540983,-0.3278688524590164,-0.4918032786885246,-0.5942622950819673,-0.7172131147540983,-0.7950819672131147,-0.8360655737704918,-0.8524590163934427,-0.8852459016393444,-0.918032786885246,-0.8852459016393444,-0.8524590163934427,-0.75,-0.7172131147540983,-0.6885245901639344,-0.6475409836065574,-0.6475409836065574,-0.6475409836065574,-0.6188524590163934,-0.5819672131147541,-0.5327868852459017,-0.48360655737704916,-0.4467213114754099,-0.4098360655737705,-0.3811475409836066,-0.3442622950819672,-0.3155737704918033,-0.26639344262295084,-0.21721311475409838,-0.1680327868852459,-0.11885245901639344,-0.0778688524590164,-0.05327868852459017,-0.02868852459016394,-0.012295081967213115,-0.012295081967213115,-0.00819672131147541,0.00819672131147541,0.012295081967213115,0.01639344262295082,0.03278688524590164,0.01639344262295082,0.020491803278688527,0.020491803278688527,0.02868852459016394,0.036885245901639344,0.03278688524590164,0.05737704918032788,0.05737704918032788,0.05327868852459017,0.06557377049180328,0.06557377049180328,0.07377049180327869,0.07377049180327869,0.0860655737704918,0.09426229508196722,0.10245901639344263,0.09836065573770492,0.09836065573770492,0.0860655737704918,0.09426229508196722,0.09016393442622951,0.06967213114754099,0.0819672131147541,0.07377049180327869,0.06967213114754099,0.0778688524590164,0.0860655737704918,0.07377049180327869,0.05737704918032788,0.07377049180327869,0.07377049180327869,0.0778688524590164,0.06967213114754099,0.06147540983606557,0.04918032786885246,0.05737704918032788,0.05327868852459017,0.05737704918032788,0.04918032786885246,0.02868852459016394,0.036885245901639344,0.02868852459016394,0.020491803278688527,0.012295081967213115,0.012295081967213115,0.02868852459016394,0.04098360655737705,0.05327868852459017,0.02868852459016394,0.02868852459016394,0.03278688524590164,0.020491803278688527,0.012295081967213115,0.0,0.0,-0.012295081967213115,-0.00819672131147541,-0.020491803278688527,-0.02868852459016394,-0.012295081967213115,-0.01639344262295082,-0.02868852459016394,-0.02868852459016394,-0.04098360655737705,-0.02868852459016394,-0.02868852459016394,-0.045081967213114756,-0.036885245901639344,-0.045081967213114756,-0.04918032786885246,-0.05327868852459017,-0.06147540983606557,-0.05737704918032788,-0.06557377049180328,-0.0778688524590164,-0.0778688524590164,-0.09016393442622951,-0.11885245901639344,-0.13114754098360656,-0.12704918032786885,-0.14754098360655737,-0.13934426229508198,-0.1557377049180328,-0.1680327868852459,-0.18032786885245902,-0.1680327868852459,-0.1680327868852459,-0.1762295081967213,-0.18032786885245902,-0.18442622950819673,-0.18032786885245902,-0.1762295081967213,-0.20081967213114754,-0.18852459016393444,-0.20491803278688525,-0.21311475409836067,-0.19262295081967212,-0.18852459016393444,-0.20491803278688525,-0.21721311475409838,-0.2295081967213115,-0.2213114754098361,-0.23360655737704916,-0.2254098360655738,-0.23360655737704916,-0.25,-0.2459016393442623,-0.25,-0.2581967213114754,-0.26639344262295084,-0.2540983606557377,-0.2540983606557377,-0.24180327868852458,-0.2295081967213115,-0.23360655737704916,-0.23360655737704916,-0.2254098360655738,-0.2295081967213115,-0.2254098360655738,-0.23770491803278687,-0.2459016393442623,-0.23770491803278687,-0.2254098360655738,-0.2295081967213115,-0.23360655737704916,-0.24180327868852458,-0.2295081967213115,-0.2213114754098361,-0.21721311475409838,-0.2254098360655738,-0.21721311475409838,-0.21311475409836067,-0.2213114754098361,-0.20901639344262296,-0.21311475409836067,-0.19262295081967212,-0.18442622950819673,-0.18852459016393444,-0.1762295081967213,-0.15163934426229508,-0.1598360655737705,-0.1762295081967213,-0.1557377049180328,-0.1557377049180328,-0.1598360655737705,-0.1762295081967213,-0.1680327868852459,-0.1721311475409836,-0.18852459016393444,-0.19262295081967212,-0.20081967213114754,-0.1721311475409836,-0.19672131147540983,-0.19672131147540983,-0.21721311475409838,-0.20081967213114754,-0.20901639344262296,-0.21311475409836067,-0.23360655737704916,-0.25,-0.23360655737704916,-0.26229508196721313,-0.2581967213114754,-0.25,-0.26229508196721313,-0.2581967213114754,-0.26639344262295084,-0.2540983606557377,-0.27459016393442626,-0.2540983606557377,-0.2581967213114754,-0.26229508196721313,-0.27049180327868855,-0.27049180327868855,-0.27868852459016397,-0.27459016393442626,-0.2540983606557377,-0.2459016393442623,-0.25,-0.2295081967213115,-0.23770491803278687,-0.23770491803278687,-0.2295081967213115,-0.23360655737704916,-0.23770491803278687,-0.24180327868852458,-0.2295081967213115,-0.25,-0.23770491803278687,-0.23360655737704916,-0.2295081967213115,-0.2213114754098361,-0.2254098360655738,-0.21721311475409838,-0.20491803278688525,-0.18852459016393444,-0.14344262295081966,-0.06557377049180328,-0.04098360655737705,-0.0860655737704918,-0.13524590163934427,-0.1639344262295082,-0.27049180327868855,-0.38934426229508196,-0.5327868852459017,-0.639344262295082,-0.7459016393442623,-0.7622950819672132,-0.7991803278688525,-0.9016393442622952,-0.8934426229508198,-0.8442622950819673,-0.7786885245901639,-0.7459016393442623,-0.7090163934426229,-0.6680327868852459,-0.6270491803278688,-0.6311475409836066,-0.5983606557377049,-0.5655737704918032,-0.5163934426229508,-0.47131147540983603,-0.42622950819672134,-0.39344262295081966,-0.3770491803278689,-0.36065573770491804,-0.3073770491803279,-0.28688524590163933,-0.2459016393442623,-0.20901639344262296,-0.13934426229508198,-0.11475409836065575,-0.0860655737704918,-0.0778688524590164,-0.0778688524590164,-0.06557377049180328,-0.07377049180327869,-0.0778688524590164,-0.05327868852459017,-0.04098360655737705,-0.036885245901639344,-0.02459016393442623,-0.02459016393442623,-0.02459016393442623,-0.01639344262295082,-0.004098360655737705,-0.01639344262295082,-0.00819672131147541,-0.020491803278688527,-0.004098360655737705,-0.012295081967213115,0.0,0.0,0.02459016393442623,0.03278688524590164,0.01639344262295082,0.02868852459016394,0.045081967213114756,N
-0.1639344262295082,-0.27049180327868855,-0.38934426229508196,-0.5327868852459017,-0.639344262295082,-0.7459016393442623,-0.7622950819672132,-0.7991803278688525,-0.9016393442622952,-0.8934426229508198,-0.8442622950819673,-0.7786885245901639,-0.7459016393442623,-0.7090163934426229,-0.6680327868852459,-0.6270491803278688,-0.6311475409836066,-0.5983606557377049,-0.5655737704918032,-0.5163934426229508,-0.47131147540983603,-0.42622950819672134,-0.39344262295081966,-0.3770491803278689,-0.36065573770491804,-0.3073770491803279,-0.28688524590163933,-0.2459016393442623,-0.20901639344262296,-0.13934426229508198,-0.11475409836065575,-0.0860655737704918,-0.0778688524590164,-0.0778688524590164,-0.06557377049180328,-0.07377049180327869,-0.0778688524590164,-0.05327868852459017,-0.04098360655737705,-0.036885245901639344,-0.02459016393442623,-0.02459016393442623,-0.02459016393442623,-0.01639344262295082,-0.004098360655737705,-0.01639344262295082,-0.00819672131147541,-0.020491803278688527,-0.004098360655737705,-0.012295081967213115,0.0,0.0,0.02459016393442623,0.03278688524590164,0.01639344262295082,0.02868852459016394,0.045081967213114756,0.036885245901639344,0.04918032786885246,0.045081967213114756,0.05327868852459017,0.05327868852459017,0.05737704918032788,0.045081967213114756,0.0778688524590164,0.05737704918032788,0.09016393442622951,0.0778688524590164,0.0860655737704918,0.10655737704918034,0.10655737704918034,0.09836065573770492,0.10655737704918034,0.09836065573770492,0.12295081967213115,0.09426229508196722,0.09016393442622951,0.09426229508196722,0.0778688524590164,0.06147540983606557,0.07377049180327869,0.06967213114754099,0.06967213114754099,0.06147540983606557,0.04918032786885246,0.05737704918032788,0.045081967213114756,0.045081967213114756,0.045081967213114756,0.045081967213114756,0.04918032786885246,0.036885245901639344,0.045081967213114756,0.02868852459016394,0.0,-0.004098360655737705,-0.004098360655737705,-0.02459016393442623,-0.02459016393442623,-0.06147540983606557,-0.0778688524590164,-0.07377049180327869,-0.0819672131147541,-0.05737704918032788,-0.06557377049180328,-0.05327868852459017,-0.0860655737704918,-0.0778688524590164,-0.09016393442622951,-0.09836065573770492,-0.09426229508196722,-0.11065573770491804,-0.11475409836065575,-0.11475409836065575,-0.13934426229508198,-0.13524590163934427,-0.14344262295081966,-0.14754098360655737,-0.14754098360655737,-0.15163934426229508,-0.1557377049180328,-0.14754098360655737,-0.1680327868852459,-0.1598360655737705,-0.1598360655737705,-0.1639344262295082,-0.1598360655737705,-0.1598360655737705,-0.1598360655737705,-0.1598360655737705,-0.1557377049180328,-0.1557377049180328,-0.1557377049180328,-0.1598360655737705,-0.1680327868852459,-0.1598360655737705,-0.1557377049180328,-0.14344262295081966,-0.14754098360655737,-0.15163934426229508,-0.1721311475409836,-0.1721311475409836,-0.1639344262295082,-0.18032786885245902,-0.18442622950819673,-0.19672131147540983,-0.20081967213114754,-0.18852459016393444,-0.19262295081967212,-0.21311475409836067,-0.20901639344262296,-0.20491803278688525,-0.20491803278688525,-0.20081967213114754,-0.19672131147540983,-0.19672131147540983,-0.19672131147540983,-0.20081967213114754,-0.19672131147540983,-0.18442622950819673,-0.19262295081967212,-0.18442622950819673,-0.20081967213114754,-0.2213114754098361,-0.21721311475409838,-0.20491803278688525,-0.2254098360655738,-0.23770491803278687,-0.2295081967213115,-0.2213114754098361,-0.20491803278688525,-0.20081967213114754,-0.19262295081967212,-0.18852459016393444,-0.19672131147540983,-0.20491803278688525,-0.20491803278688525,-0.19672131147540983,-0.19672131147540983,-0.18852459016393444,-0.21721311475409838,-0.21311475409836067,-0.21721311475409838,-0.20901639344262296,-0.20491803278688525,-0.20901639344262296,-0.21721311475409838,-0.21721311475409838,-0.2295081967213115,-0.2213114754098361,-0.2295081967213115,-0.21311475409836067,-0.2213114754098361,-0.20081967213114754,-0.2295081967213115,-0.2254098360655738,-0.24180327868852458,-0.23770491803278687,-0.2213114754098361,-0.2254098360655738,-0.2295081967213115,-0.2213114754098361,-0.21311475409836067,-0.20491803278688525,-0.19262295081967212,-0.19672131147540983,-0.19672131147540983,-0.20081967213114754,-0.20491803278688525,-0.21721311475409838,-0.21721311475409838,-0.20491803278688525,-0.2213114754098361,-0.2254098360655738,-0.2254098360655738,-0.2254098360655738,-0.21721311475409838,-0.2295081967213115,-0.2254098360655738,-0.21311475409836067,-0.20901639344262296,-0.21721311475409838,-0.20901639344262296,-0.19672131147540983,-0.21721311475409838,-0.20491803278688525,-0.20491803278688525,-0.18852459016393444,-0.20081967213114754,-0.20081967213114754,-0.20081967213114754,-0.18852459016393444,-0.20081967213114754,-0.19672131147540983,-0.19262295081967212,-0.1680327868852459,-0.11475409836065575,-0.04918032786885246,-0.02868852459016394,-0.045081967213114756,-0.0860655737704918,-0.1721311475409836,-0.3073770491803279,-0.4467213114754099,-0.5737704918032787,-0.6844262295081968,-0.7377049180327869,-0.7622950819672132,-0.7581967213114754,-0.75,-0.8114754098360656,-0.8442622950819673,-0.8360655737704918,-0.7786885245901639,-0.7295081967213115,-0.6967213114754098,-0.6721311475409836,-0.6311475409836066,-0.639344262295082,-0.6147540983606558,-0.5860655737704918,-0.5655737704918032,-0.5409836065573771,-0.4959016393442623,-0.4672131147540983,-0.43032786885245905,-0.42213114754098363,-0.4139344262295082,-0.3811475409836066,-0.3278688524590164,-0.27868852459016397,-0.25,-0.18032786885245902,-0.11475409836065575,-0.0860655737704918,-0.06557377049180328,-0.045081967213114756,-0.020491803278688527,-0.02459016393442623,-0.020491803278688527,-0.01639344262295082,-0.004098360655737705,-0.01639344262295082,-0.02868852459016394,-0.01639344262295082,-0.00819672131147541,-0.02459016393442623,-0.03278688524590164,-0.02868852459016394,-0.012295081967213115,-0.004098360655737705,-0.004098360655737705,0.0,-0.004098360655737705,0.01639344262295082,0.012295081967213115,0.0,0.012295081967213115,0.00819672131147541,0.00819672131147541,N
-0.0860655737704918,-0.1721311475409836,-0.3073770491803279,-0.4467213114754099,-0.5737704918032787,-0.6844262295081968,-0.7377049180327869,-0.7622950819672132,-0.7581967213114754,-0.75,-0.8114754098360656,-0.8442622950819673,-0.8360655737704918,-0.7786885245901639,-0.7295081967213115,-0.6967213114754098,-0.6721311475409836,-0.6311475409836066,-0.639344262295082,-0.6147540983606558,-0.5860655737704918,-0.5655737704918032,-0.5409836065573771,-0.4959016393442623,-0.4672131147540983,-0.43032786885245905,-0.42213114754098363,-0.4139344262295082,-0.3811475409836066,-0.3278688524590164,-0.27868852459016397,-0.25,-0.18032786885245902,-0.11475409836065575,-0.0860655737704918,-0.06557377049180328,-0.045081967213114756,-0.020491803278688527,-0.02459016393442623,-0.020491803278688527,-0.01639344262295082,-0.004098360655737705,-0.01639344262295082,-0.02868852459016394,-0.01639344262295082,-0.00819672131147541,-0.02459016393442623,-0.03278688524590164,-0.02868852459016394,-0.012295081967213115,-0.004098360655737705,-0.004098360655737705,0.0,-0.004098360655737705,0.01639344262295082,0.012295081967213115,0.0,0.012295081967213115,0.00819672131147541,0.00819672131147541,0.004098360655737705,0.0,0.012295081967213115,0.04098360655737705,0.06557377049180328,0.0778688524590164,0.09426229508196722,0.10655737704918034,0.13114754098360656,0.12295081967213115,0.12295081967213115,0.14344262295081966,0.13114754098360656,0.13934426229508198,0.1557377049180328,0.1557377049180328,0.12704918032786885,0.14754098360655737,0.13114754098360656,0.12295081967213115,0.13524590163934427,0.12704918032786885,0.13524590163934427,0.14344262295081966,0.13934426229508198,0.12704918032786885,0.13934426229508198,0.10655737704918034,0.11475409836065575,0.11065573770491804,0.10655737704918034,0.09836065573770492,0.0860655737704918,0.09426229508196722,0.09016393442622951,0.07377049180327869,0.06147540983606557,0.05737704918032788,0.036885245901639344,0.04098360655737705,0.04098360655737705,0.02459016393442623,0.02459016393442623,0.012295081967213115,-0.004098360655737705,-0.004098360655737705,-0.004098360655737705,-0.012295081967213115,0.0,-0.02459016393442623,-0.036885245901639344,-0.045081967213114756,-0.0819672131147541,-0.09426229508196722,-0.12295081967213115,-0.11885245901639344,-0.13934426229508198,-0.13934426229508198,-0.14344262295081966,-0.1598360655737705,-0.1639344262295082,-0.1762295081967213,-0.1721311475409836,-0.1598360655737705,-0.1680327868852459,-0.1721311475409836,-0.1721311475409836,-0.1680327868852459,-0.20491803278688525,-0.18442622950819673,-0.20081967213114754,-0.20901639344262296,-0.18032786885245902,-0.1680327868852459,-0.1680327868852459,-0.1598360655737705,-0.1639344262295082,-0.1762295081967213,-0.14344262295081966,-0.1557377049180328,-0.1598360655737705,-0.1598360655737705,-0.1598360655737705,-0.1639344262295082,-0.1639344262295082,-0.1557377049180328,-0.1721311475409836,-0.1762295081967213,-0.18032786885245902,-0.18852459016393444,-0.20081967213114754,-0.18852459016393444,-0.21311475409836067,-0.20491803278688525,-0.20901639344262296,-0.20491803278688525,-0.21721311475409838,-0.20491803278688525,-0.20491803278688525,-0.18032786885245902,-0.18852459016393444,-0.1762295081967213,-0.1598360655737705,-0.1639344262295082,-0.1598360655737705,-0.18032786885245902,-0.1557377049180328,-0.1557377049180328,-0.1639344262295082,-0.1598360655737705,-0.15163934426229508,-0.1721311475409836,-0.1721311475409836,-0.1762295081967213,-0.1598360655737705,-0.1598360655737705,-0.1680327868852459,-0.1680327868852459,-0.15163934426229508,-0.14344262295081966,-0.15163934426229508,-0.1598360655737705,-0.14754098360655737,-0.1598360655737705,-0.1721311475409836,-0.1598360655737705,-0.1598360655737705,-0.1762295081967213,-0.1762295081967213,-0.20081967213114754,-0.19672131147540983,-0.19672131147540983,-0.21721311475409838,-0.20901639344262296,-0.20491803278688525,-0.21311475409836067,-0.20901639344262296,-0.2213114754098361,-0.23360655737704916,-0.23360655737704916,-0.20081967213114754,-0.20901639344262296,-0.15163934426229508,-0.10245901639344263,-0.04098360655737705,-0.03278688524590164,-0.09426229508196722,-0.13934426229508198,-0.20901639344262296,-0.3360655737704918,-0.47950819672131145,-0.5942622950819673,-0.680327868852459,-0.7581967213114754,-0.8032786885245902,-0.8688524590163935,-0.8934426229508198,-0.8155737704918032,-0.7663934426229508,-0.7459016393442623,-0.6885245901639344,-0.6721311475409836,-0.6639344262295083,-0.6434426229508197,-0.6311475409836066,-0.5983606557377049,-0.5614754098360656,-0.5163934426229508,-0.4672131147540983,-0.43032786885245905,-0.38524590163934425,-0.36475409836065575,-0.319672131147541,-0.29098360655737704,-0.2254098360655738,-0.18032786885245902,-0.12295081967213115,-0.0860655737704918,-0.0819672131147541,-0.045081967213114756,-0.02868852459016394,-0.01639344262295082,-0.004098360655737705,-0.01639344262295082,0.02459016393442623,0.036885245901639344,0.06967213114754099,0.0860655737704918,0.09016393442622951,0.11065573770491804,0.12295081967213115,0.13524590163934427,0.1557377049180328,0.1762295081967213,0.1762295081967213,0.1762295081967213,0.19262295081967212,0.18442622950819673,0.18852459016393444,0.18032786885245902,0.1762295081967213,0.1598360655737705,0.14754098360655737,0.14344262295081966,0.13524590163934427,0.13114754098360656,0.11885245901639344,0.11065573770491804,0.11475409836065575,0.10245901639344263,0.12295081967213115,0.11065573770491804,0.12704918032786885,0.11885245901639344,0.11475409836065575,0.11885245901639344,0.11885245901639344,0.13114754098360656,0.11475409836065575,0.11475409836065575,0.10655737704918034,0.10655737704918034,0.11065573770491804,0.11065573770491804,0.10245901639344263,0.10245901639344263,0.09016393442622951,0.0860655737704918,0.0860655737704918,0.0819672131147541,0.06967213114754099,0.05737704918032788,0.06557377049180328,0.05737704918032788,0.06147540983606557,0.03278688524590164,0.036885245901639344,0.02459016393442623,0.020491803278688527,0.0,N
-0.20901639344262296,-0.15163934426229508,-0.10245901639344263,-0.04098360655737705,-0.03278688524590164,-0.09426229508196722,-0.13934426229508198,-0.20901639344262296,-0.3360655737704918,-0.47950819672131145,-0.5942622950819673,-0.680327868852459,-0.7581967213114754,-0.8032786885245902,-0.8688524590163935,-0.8934426229508198,-0.8155737704918032,-0.7663934426229508,-0.7459016393442623,-0.6885245901639344,-0.6721311475409836,-0.6639344262295083,-0.6434426229508197,-0.6311475409836066,-0.5983606557377049,-0.5614754098360656,-0.5163934426229508,-0.4672131147540983,-0.43032786885245905,-0.38524590163934425,-0.36475409836065575,-0.319672131147541,-0.29098360655737704,-0.2254098360655738,-0.18032786885245902,-0.12295081967213115,-0.0860655737704918,-0.0819672131147541,-0.045081967213114756,-0.02868852459016394,-0.01639344262295082,-0.004098360655737705,-0.01639344262295082,0.02459016393442623,0.036885245901639344,0.06967213114754099,0.0860655737704918,0.09016393442622951,0.11065573770491804,0.12295081967213115,0.13524590163934427,0.1557377049180328,0.1762295081967213,0.1762295081967213,0.1762295081967213,0.19262295081967212,0.18442622950819673,0.18852459016393444,0.18032786885245902,0.1762295081967213,0.1598360655737705,0.14754098360655737,0.14344262295081966,0.13524590163934427,0.13114754098360656,0.11885245901639344,0.11065573770491804,0.11475409836065575,0.10245901639344263,0.12295081967213115,0.11065573770491804,0.12704918032786885,0.11885245901639344,0.11475409836065575,0.11885245901639344,0.11885245901639344,0.13114754098360656,0.11475409836065575,0.11475409836065575,0.10655737704918034,0.10655737704918034,0.11065573770491804,0.11065573770491804,0.10245901639344263,0.10245901639344263,0.09016393442622951,0.0860655737704918,0.0860655737704918,0.0819672131147541,0.06967213114754099,0.05737704918032788,0.06557377049180328,0.05737704918032788,0.06147540983606557,0.03278688524590164,0.036885245901639344,0.02459016393442623,0.020491803278688527,0.0,0.00819672131147541,-0.012295081967213115,-0.01639344262295082,-0.03278688524590164,-0.02459016393442623,-0.045081967213114756,-0.04918032786885246,-0.06967213114754099,-0.05327868852459017,-0.0819672131147541,-0.0819672131147541,-0.09836065573770492,-0.11885245901639344,-0.11885245901639344,-0.13114754098360656,-0.13934426229508198,-0.14754098360655737,-0.13114754098360656,-0.1557377049180328,-0.15163934426229508,-0.15163934426229508,-0.14754098360655737,-0.1557377049180328,-0.1557377049180328,-0.14754098360655737,-0.1598360655737705,-0.1557377049180328,-0.15163934426229508,-0.14754098360655737,-0.14344262295081966,-0.15163934426229508,-0.15163934426229508,-0.15163934426229508,-0.14344262295081966,-0.1598360655737705,-0.14344262295081966,-0.1557377049180328,-0.15163934426229508,-0.15163934426229508,-0.1557377049180328,-0.1557377049180328,-0.15163934426229508,-0.1598360655737705,-0.1598360655737705,-0.1680327868852459,-0.1721311475409836,-0.1557377049180328,-0.1639344262295082,-0.14754098360655737,-0.1680327868852459,-0.1721311475409836,-0.18442622950819673,-0.1639344262295082,-0.1557377049180328,-0.18032786885245902,-0.1721311475409836,-0.18852459016393444,-0.1721311475409836,-0.1762295081967213,-0.18442622950819673,-0.1762295081967213,-0.19262295081967212,-0.1762295081967213,-0.1762295081967213,-0.18852459016393444,-0.19262295081967212,-0.18852459016393444,-0.19262295081967212,-0.19262295081967212,-0.19262295081967212,-0.18852459016393444,-0.19672131147540983,-0.20081967213114754,-0.20081967213114754,-0.19672131147540983,-0.20081967213114754,-0.20491803278688525,-0.20081967213114754,-0.21721311475409838,-0.20081967213114754,-0.21721311475409838,-0.20901639344262296,-0.2254098360655738,-0.20901639344262296,-0.2254098360655738,-0.2213114754098361,-0.21721311475409838,-0.21721311475409838,-0.20491803278688525,-0.2213114754098361,-0.20491803278688525,-0.21721311475409838,-0.21721311475409838,-0.21311475409836067,-0.20081967213114754,-0.19672131147540983,-0.20491803278688525,-0.2213114754098361,-0.24180327868852458,-0.2213114754098361,-0.2254098360655738,-0.21311475409836067,-0.2213114754098361,-0.2295081967213115,-0.21721311475409838,-0.24180327868852458,-0.2254098360655738,-0.2295081967213115,-0.2254098360655738,-0.23360655737704916,-0.21311475409836067,-0.2295081967213115,-0.20901639344262296,-0.24180327868852458,-0.2213114754098361,-0.2295081967213115,-0.21721311475409838,-0.23770491803278687,-0.2295081967213115,-0.21311475409836067,-0.21311475409836067,-0.20491803278688525,-0.20491803278688525,-0.21311475409836067,-0.20491803278688525,-0.2254098360655738,-0.2254098360655738,-0.21721311475409838,-0.20491803278688525,-0.2213114754098361,-0.20901639344262296,-0.21721311475409838,-0.21721311475409838,-0.23360655737704916,-0.2295081967213115,-0.2213114754098361,-0.21721311475409838,-0.20491803278688525,-0.2213114754098361,-0.2213114754098361,-0.21721311475409838,-0.2213114754098361,-0.2254098360655738,-0.2254098360655738,-0.2295081967213115,-0.2254098360655738,-0.2254098360655738,-0.2295081967213115,-0.2254098360655738,-0.21721311475409838,-0.21311475409836067,-0.2213114754098361,-0.2213114754098361,-0.23770491803278687,-0.2295081967213115,-0.20901639344262296,-0.2295081967213115,-0.2254098360655738,-0.2213114754098361,-0.20901639344262296,-0.2254098360655738,-0.2254098360655738,-0.2213114754098361,-0.21311475409836067,-0.23360655737704916,-0.23360655737704916,-0.21311475409836067,-0.2295081967213115,-0.21721311475409838,-0.21721311475409838,-0.21721311475409838,-0.2254098360655738,-0.2254098360655738,-0.2213114754098361,-0.2254098360655738,-0.2295081967213115,-0.20901639344262296,-0.2213114754098361,-0.24180327868852458,-0.2254098360655738,-0.24180327868852458,-0.2295081967213115,-0.21721311475409838,-0.2254098360655738,-0.23360655737704916,-0.2213114754098361,-0.2459016393442623,-0.2254098360655738,-0.2213114754098361,-0.23770491803278687,-0.2295081967213115,-0.21721311475409838,-0.2295081967213115,-0.2213114754098361,-0.21311475409836067,-0.21311475409836067,-0.2213114754098361,-0.2213114754098361,-0.20901639344262296,-0.20491803278688525,-0.21721311475409838,N
-0.18442622950819673,-0.1762295081967213,-0.07377049180327869,-0.06147540983606557,-0.0819672131147541,-0.11885245901639344,-0.1762295081967213,-0.25,-0.3729508196721312,-0.47950819672131145,-0.6024590163934426,-0.6680327868852459,-0.7090163934426229,-0.7622950819672132,-0.7868852459016393,-0.7622950819672132,-0.7090163934426229,-0.6598360655737705,-0.6434426229508197,-0.5819672131147541,-0.5819672131147541,-0.6065573770491803,-0.6147540983606558,-0.5819672131147541,-0.5409836065573771,-0.4959016393442623,-0.47131147540983603,-0.4631147540983606,-0.4426229508196722,-0.4180327868852459,-0.36065573770491804,-0.33196721311475413,-0.29508196721311475,-0.25,-0.21311475409836067,-0.1680327868852459,-0.14754098360655737,-0.12295081967213115,-0.10655737704918034,-0.11475409836065575,-0.10245901639344263,-0.0860655737704918,-0.09016393442622951,-0.09016393442622951,-0.0819672131147541,-0.06967213114754099,-0.06967213114754099,-0.06557377049180328,-0.06557377049180328,-0.05737704918032788,-0.06147540983606557,-0.05327868852459017,-0.05327868852459017,-0.045081967213114756,-0.02868852459016394,-0.03278688524590164,-0.03278688524590164,-0.02459016393442623,-0.020491803278688527,-0.02459016393442623,-0.02459016393442623,-0.01639344262295082,-0.012295081967213115,-0.00819672131147541,-0.01639344262295082,-0.00819672131147541,-0.004098360655737705,-0.00819672131147541,0.004098360655737705,0.0,0.020491803278688527,0.004098360655737705,0.004098360655737705,0.020491803278688527,0.00819672131147541,0.00819672131147541,0.012295081967213115,0.01639344262295082,0.012295081967213115,0.0,0.0,0.0,-0.004098360655737705,0.0,-0.00819672131147541,-0.01639344262295082,-0.020491803278688527,-0.02459016393442623,-0.03278688524590164,-0.02868852459016394,-0.02868852459016394,-0.04098360655737705,-0.02868852459016394,-0.05327868852459017,-0.04918032786885246,-0.04918032786885246,-0.06147540983606557,-0.05327868852459017,-0.06557377049180328,-0.06147540983606557,-0.0778688524590164,-0.06967213114754099,-0.0819672131147541,-0.0819672131147541,-0.10655737704918034,-0.09426229508196722,-0.11065573770491804,-0.12295081967213115,-0.11065573770491804,-0.10655737704918034,-0.12704918032786885,-0.13114754098360656,-0.11885245901639344,-0.11475409836065575,-0.11885245901639344,-0.11885245901639344,-0.13114754098360656,-0.11885245901639344,-0.13524590163934427,-0.15163934426229508,-0.14754098360655737,-0.14344262295081966,-0.14344262295081966,-0.13934426229508198,-0.13524590163934427,-0.14344262295081966,-0.13934426229508198,-0.13934426229508198,-0.13524590163934427,-0.13524590163934427,-0.13524590163934427,-0.13114754098360656,-0.13114754098360656,-0.13114754098360656,-0.13934426229508198,-0.14344262295081966,-0.12704918032786885,-0.12295081967213115,-0.14754098360655737,-0.13114754098360656,-0.13524590163934427,-0.11475409836065575,-0.13114754098360656,-0.11885245901639344,-0.13114754098360656,-0.12704918032786885,-0.13114754098360656,-0.12704918032786885,-0.13934426229508198,-0.14344262295081966,-0.14344262295081966,-0.15163934426229508,-0.14754098360655737,-0.14344262295081966,-0.13524590163934427,-0.14754098360655737,-0.1639344262295082,-0.1721311475409836,-0.1680327868852459,-0.1639344262295082,-0.1762295081967213,-0.1721311475409836,-0.18852459016393444,-0.19262295081967212,-0.19262295081967212,-0.18032786885245902,-0.19262295081967212,-0.19672131147540983,-0.19672131147540983,-0.1762295081967213,-0.1721311475409836,-0.19672131147540983,-0.20491803278688525,-0.18442622950819673,-0.18852459016393444,-0.19672131147540983,-0.20901639344262296,-0.19672131147540983,-0.20491803278688525,-0.18852459016393444,-0.18852459016393444,-0.20081967213114754,-0.20491803278688525,-0.20491803278688525,-0.19262295081967212,-0.21721311475409838,-0.20901639344262296,-0.21311475409836067,-0.20901639344262296,-0.2254098360655738,-0.21311475409836067,-0.20901639344262296,-0.20081967213114754,-0.20081967213114754,-0.21721311475409838,-0.20901639344262296,-0.20491803278688525,-0.21311475409836067,-0.20901639344262296,-0.20491803278688525,-0.20901639344262296,-0.19262295081967212,-0.19262295081967212,-0.19672131147540983,-0.20081967213114754,-0.19672131147540983,-0.19262295081967212,-0.18442622950819673,-0.20901639344262296,-0.20901639344262296,-0.20081967213114754,-0.19262295081967212,-0.20901639344262296,-0.20491803278688525,-0.19262295081967212,-0.20491803278688525,-0.21311475409836067,-0.21311475409836067,-0.21311475409836067,-0.2254098360655738,-0.23360655737704916,-0.19672131147540983,-0.20901639344262296,-0.20901639344262296,-0.20491803278688525,-0.18442622950819673,-0.19672131147540983,-0.1762295081967213,-0.15163934426229508,-0.13934426229508198,-0.11475409836065575,-0.11885245901639344,-0.13114754098360656,-0.13114754098360656,-0.14754098360655737,-0.1598360655737705,-0.1639344262295082,-0.18442622950819673,-0.18032786885245902,-0.18852459016393444,-0.18442622950819673,-0.18032786885245902,-0.18032786885245902,-0.1598360655737705,-0.15163934426229508,-0.13934426229508198,-0.12295081967213115,-0.1557377049180328,-0.1762295081967213,-0.1762295081967213,-0.20081967213114754,-0.21311475409836067,-0.23770491803278687,-0.24180327868852458,-0.2459016393442623,-0.2459016393442623,-0.25,-0.25,-0.25,-0.24180327868852458,-0.26229508196721313,-0.23770491803278687,-0.2459016393442623,-0.24180327868852458,-0.25,-0.2581967213114754,-0.24180327868852458,-0.2540983606557377,-0.26229508196721313,-0.27868852459016397,-0.2540983606557377,-0.2540983606557377,-0.26229508196721313,-0.2459016393442623,-0.23770491803278687,-0.2459016393442623,-0.24180327868852458,-0.2459016393442623,-0.24180327868852458,-0.2295081967213115,-0.21721311475409838,-0.20491803278688525,-0.19672131147540983,-0.14344262295081966,-0.0778688524590164,-0.0819672131147541,-0.11475409836065575,-0.1557377049180328,-0.20901639344262296,-0.3073770491803279,-0.42622950819672134,-0.5491803278688525,-0.6270491803278688,-0.6844262295081968,-0.7131147540983607,-0.7663934426229508,-0.7827868852459017,-0.8278688524590164,-0.7868852459016393,-0.7418032786885246,N
-0.19672131147540983,-0.14344262295081966,-0.0778688524590164,-0.0819672131147541,-0.11475409836065575,-0.1557377049180328,-0.20901639344262296,-0.3073770491803279,-0.42622950819672134,-0.5491803278688525,-0.6270491803278688,-0.6844262295081968,-0.7131147540983607,-0.7663934426229508,-0.7827868852459017,-0.8278688524590164,-0.7868852459016393,-0.7418032786885246,-0.7008196721311475,-0.6762295081967213,-0.6311475409836066,-0.6270491803278688,-0.6352459016393442,-0.6188524590163934,-0.6024590163934426,-0.5573770491803279,-0.5122950819672131,-0.4959016393442623,-0.47131147540983603,-0.4426229508196722,-0.4098360655737705,-0.38934426229508196,-0.3483606557377049,-0.28688524590163933,-0.2295081967213115,-0.19262295081967212,-0.1680327868852459,-0.12704918032786885,-0.10655737704918034,-0.0778688524590164,-0.06967213114754099,-0.07377049180327869,-0.04098360655737705,-0.045081967213114756,-0.036885245901639344,-0.02459016393442623,-0.02459016393442623,-0.020491803278688527,-0.012295081967213115,-0.004098360655737705,-0.004098360655737705,0.00819672131147541,0.0,0.004098360655737705,-0.004098360655737705,0.0,0.02459016393442623,0.020491803278688527,0.045081967213114756,0.04098360655737705,0.03278688524590164,0.05327868852459017,0.045081967213114756,0.04918032786885246,0.06557377049180328,0.06967213114754099,0.06967213114754099,0.0778688524590164,0.06967213114754099,0.09016393442622951,0.0819672131147541,0.07377049180327869,0.09426229508196722,0.11065573770491804,0.10655737704918034,0.09016393442622951,0.10655737704918034,0.11475409836065575,0.10655737704918034,0.10245901639344263,0.09836065573770492,0.09426229508196722,0.09426229508196722,0.09016393442622951,0.10655737704918034,0.09016393442622951,0.0778688524590164,0.06557377049180328,0.06967213114754099,0.09016393442622951,0.06147540983606557,0.07377049180327869,0.06967213114754099,0.04918032786885246,0.06557377049180328,0.045081967213114756,0.02459016393442623,0.02868852459016394,0.02459016393442623,0.012295081967213115,0.012295081967213115,0.00819672131147541,-0.004098360655737705,-0.02868852459016394,-0.02868852459016394,-0.02868852459016394,-0.04098360655737705,-0.04918032786885246,-0.05737704918032788,-0.06147540983606557,-0.06967213114754099,-0.07377049180327869,-0.09836065573770492,-0.11065573770491804,-0.11065573770491804,-0.12704918032786885,-0.13934426229508198,-0.13934426229508198,-0.14754098360655737,-0.14754098360655737,-0.14754098360655737,-0.1639344262295082,-0.1721311475409836,-0.1639344262295082,-0.1680327868852459,-0.1557377049180328,-0.1721311475409836,-0.18032786885245902,-0.1557377049180328,-0.18032786885245902,-0.1721311475409836,-0.18032786885245902,-0.1721311475409836,-0.1762295081967213,-0.1762295081967213,-0.1639344262295082,-0.1639344262295082,-0.1680327868852459,-0.1680327868852459,-0.15163934426229508,-0.1598360655737705,-0.15163934426229508,-0.15163934426229508,-0.1639344262295082,-0.15163934426229508,-0.1598360655737705,-0.1680327868852459,-0.1598360655737705,-0.14754098360655737,-0.1639344262295082,-0.1639344262295082,-0.1639344262295082,-0.1639344262295082,-0.1680327868852459,-0.1598360655737705,-0.1639344262295082,-0.1639344262295082,-0.1680327868852459,-0.18032786885245902,-0.1762295081967213,-0.1557377049180328,-0.1721311475409836,-0.1721311475409836,-0.1762295081967213,-0.1721311475409836,-0.18032786885245902,-0.18442622950819673,-0.18852459016393444,-0.18032786885245902,-0.1762295081967213,-0.18852459016393444,-0.18032786885245902,-0.18442622950819673,-0.19262295081967212,-0.19262295081967212,-0.18852459016393444,-0.18032786885245902,-0.19262295081967212,-0.18442622950819673,-0.19672131147540983,-0.18032786885245902,-0.1762295081967213,-0.19672131147540983,-0.19672131147540983,-0.19262295081967212,-0.20081967213114754,-0.18442622950819673,-0.19262295081967212,-0.18442622950819673,-0.18032786885245902,-0.19672131147540983,-0.19262295081967212,-0.18852459016393444,-0.18442622950819673,-0.19672131147540983,-0.18852459016393444,-0.19672131147540983,-0.18442622950819673,-0.18852459016393444,-0.1762295081967213,-0.18032786885245902,-0.19262295081967212,-0.18032786885245902,-0.18852459016393444,-0.19672131147540983,-0.18852459016393444,-0.19672131147540983,-0.18852459016393444,-0.18852459016393444,-0.20081967213114754,-0.19672131147540983,-0.20491803278688525,-0.19262295081967212,-0.19672131147540983,-0.19672131147540983,-0.21721311475409838,-0.18852459016393444,-0.18442622950819673,-0.1639344262295082,-0.1639344262295082,-0.13934426229508198,-0.12704918032786885,-0.12295081967213115,-0.11475409836065575,-0.12295081967213115,-0.13114754098360656,-0.14344262295081966,-0.14344262295081966,-0.1721311475409836,-0.1762295081967213,-0.1721311475409836,-0.1762295081967213,-0.1762295081967213,-0.18032786885245902,-0.18442622950819673,-0.18442622950819673,-0.14344262295081966,-0.13524590163934427,-0.13934426229508198,-0.13114754098360656,-0.14344262295081966,-0.15163934426229508,-0.1762295081967213,-0.19262295081967212,-0.20081967213114754,-0.20901639344262296,-0.23360655737704916,-0.2213114754098361,-0.23360655737704916,-0.2254098360655738,-0.23360655737704916,-0.2295081967213115,-0.23360655737704916,-0.23770491803278687,-0.2295081967213115,-0.2254098360655738,-0.25,-0.2254098360655738,-0.23360655737704916,-0.2459016393442623,-0.24180327868852458,-0.2295081967213115,-0.24180327868852458,-0.23360655737704916,-0.23360655737704916,-0.2295081967213115,-0.23360655737704916,-0.23360655737704916,-0.23360655737704916,-0.2254098360655738,-0.21721311475409838,-0.2254098360655738,-0.2295081967213115,-0.20491803278688525,-0.21311475409836067,-0.19262295081967212,-0.15163934426229508,-0.09016393442622951,-0.06557377049180328,-0.0778688524590164,-0.13114754098360656,-0.1598360655737705,-0.23360655737704916,-0.35655737704918034,-0.47131147540983603,-0.5614754098360656,-0.639344262295082,-0.6967213114754098,-0.7377049180327869,-0.7745901639344263,-0.8114754098360656,-0.8278688524590164,-0.819672131147541,-0.7622950819672132,-0.7008196721311475,-0.6598360655737705,-0.6434426229508197,-0.6024590163934426,-0.6024590163934426,-0.6065573770491803,N
-0.19262295081967212,-0.15163934426229508,-0.09016393442622951,-0.06557377049180328,-0.0778688524590164,-0.13114754098360656,-0.1598360655737705,-0.23360655737704916,-0.35655737704918034,-0.47131147540983603,-0.5614754098360656,-0.639344262295082,-0.6967213114754098,-0.7377049180327869,-0.7745901639344263,-0.8114754098360656,-0.8278688524590164,-0.819672131147541,-0.7622950819672132,-0.7008196721311475,-0.6598360655737705,-0.6434426229508197,-0.6024590163934426,-0.6024590163934426,-0.6065573770491803,-0.6065573770491803,-0.5860655737704918,-0.5491803278688525,-0.5245901639344263,-0.47131147540983603,-0.4508196721311476,-0.43032786885245905,-0.38524590163934425,-0.35655737704918034,-0.33196721311475413,-0.26229508196721313,-0.2213114754098361,-0.18032786885245902,-0.14754098360655737,-0.11885245901639344,-0.0819672131147541,-0.06147540983606557,-0.04098360655737705,-0.02459016393442623,-0.020491803278688527,-0.02868852459016394,-0.01639344262295082,-0.00819672131147541,0.012295081967213115,-0.004098360655737705,0.01639344262295082,0.02868852459016394,0.020491803278688527,0.045081967213114756,0.02459016393442623,0.036885245901639344,0.04098360655737705,0.04918032786885246,0.02868852459016394,0.06147540983606557,0.05737704918032788,0.0819672131147541,0.06557377049180328,0.0819672131147541,0.09016393442622951,0.0819672131147541,0.09426229508196722,0.10655737704918034,0.09836065573770492,0.10245901639344263,0.13524590163934427,0.12704918032786885,0.11885245901639344,0.11885245901639344,0.12704918032786885,0.13114754098360656,0.12704918032786885,0.13524590163934427,0.12295081967213115,0.13114754098360656,0.11065573770491804,0.12704918032786885,0.12704918032786885,0.11885245901639344,0.11885245901639344,0.13524590163934427,0.11475409836065575,0.10245901639344263,0.10245901639344263,0.10655737704918034,0.10655737704918034,0.10245901639344263,0.0860655737704918,0.0860655737704918,0.0860655737704918,0.0778688524590164,0.07377049180327869,0.06967213114754099,0.06147540983606557,0.045081967213114756,0.04098360655737705,0.02459016393442623,0.020491803278688527,0.012295081967213115,0.0,-0.00819672131147541,-0.004098360655737705,-0.00819672131147541,-0.020491803278688527,-0.03278688524590164,-0.04098360655737705,-0.05327868852459017,-0.07377049180327869,-0.05327868852459017,-0.0860655737704918,-0.09426229508196722,-0.0860655737704918,-0.10245901639344263,-0.11065573770491804,-0.11885245901639344,-0.11065573770491804,-0.12704918032786885,-0.14344262295081966,-0.13934426229508198,-0.14754098360655737,-0.14754098360655737,-0.1557377049180328,-0.14344262295081966,-0.13934426229508198,-0.1557377049180328,-0.15163934426229508,-0.14754098360655737,-0.13934426229508198,-0.14344262295081966,-0.1598360655737705,-0.13934426229508198,-0.1557377049180328,-0.14754098360655737,-0.14344262295081966,-0.14754098360655737,-0.14344262295081966,-0.13114754098360656,-0.14754098360655737,-0.13934426229508198,-0.13934426229508198,-0.14344262295081966,-0.13934426229508198,-0.13934426229508198,-0.13114754098360656,-0.14344262295081966,-0.14344262295081966,-0.14754098360655737,-0.13934426229508198,-0.13934426229508198,-0.13114754098360656,-0.14344262295081966,-0.14754098360655737,-0.15163934426229508,-0.13114754098360656,-0.14754098360655737,-0.14754098360655737,-0.15163934426229508,-0.1598360655737705,-0.1598360655737705,-0.1639344262295082,-0.1639344262295082,-0.1721311475409836,-0.1762295081967213,-0.1762295081967213,-0.1639344262295082,-0.18032786885245902,-0.1721311475409836,-0.1639344262295082,-0.18032786885245902,-0.18442622950819673,-0.18442622950819673,-0.1721311475409836,-0.18032786885245902,-0.18032786885245902,-0.18852459016393444,-0.18032786885245902,-0.19672131147540983,-0.18852459016393444,-0.20491803278688525,-0.18852459016393444,-0.19672131147540983,-0.20491803278688525,-0.20491803278688525,-0.19262295081967212,-0.20081967213114754,-0.20081967213114754,-0.19672131147540983,-0.19672131147540983,-0.20081967213114754,-0.20081967213114754,-0.18032786885245902,-0.18442622950819673,-0.20491803278688525,-0.20491803278688525,-0.19672131147540983,-0.20901639344262296,-0.19672131147540983,-0.19672131147540983,-0.18442622950819673,-0.19672131147540983,-0.18442622950819673,-0.1762295081967213,-0.19262295081967212,-0.21311475409836067,-0.20491803278688525,-0.19672131147540983,-0.21721311475409838,-0.20491803278688525,-0.21311475409836067,-0.19262295081967212,-0.20081967213114754,-0.18852459016393444,-0.1639344262295082,-0.1557377049180328,-0.15163934426229508,-0.14344262295081966,-0.13114754098360656,-0.11475409836065575,-0.13114754098360656,-0.13934426229508198,-0.14754098360655737,-0.1680327868852459,-0.1598360655737705,-0.18442622950819673,-0.1721311475409836,-0.1762295081967213,-0.1680327868852459,-0.1762295081967213,-0.1762295081967213,-0.14754098360655737,-0.11475409836065575,-0.13934426229508198,-0.13524590163934427,-0.14344262295081966,-0.1721311475409836,-0.20491803278688525,-0.2213114754098361,-0.23770491803278687,-0.2540983606557377,-0.23770491803278687,-0.24180327868852458,-0.2254098360655738,-0.23360655737704916,-0.2459016393442623,-0.26229508196721313,-0.25,-0.23770491803278687,-0.2459016393442623,-0.24180327868852458,-0.2459016393442623,-0.24180327868852458,-0.2295081967213115,-0.25,-0.2459016393442623,-0.23360655737704916,-0.24180327868852458,-0.23360655737704916,-0.23360655737704916,-0.24180327868852458,-0.2254098360655738,-0.2295081967213115,-0.21721311475409838,-0.2213114754098361,-0.2254098360655738,-0.2295081967213115,-0.2213114754098361,-0.20491803278688525,-0.1680327868852459,-0.13114754098360656,-0.07377049180327869,-0.06967213114754099,-0.09016393442622951,-0.14754098360655737,-0.19672131147540983,-0.2827868852459016,-0.42213114754098363,-0.5368852459016393,-0.6229508196721312,-0.7172131147540983,-0.7622950819672132,-0.7991803278688525,-0.8442622950819673,-0.8852459016393444,-0.8934426229508198,-0.819672131147541,-0.7459016393442623,-0.7049180327868853,-0.6680327868852459,-0.6311475409836066,-0.6024590163934426,-0.6270491803278688,-0.639344262295082,-0.6024590163934426,-0.5614754098360656,-0.4959016393442623,N
-0.20491803278688525,-0.1680327868852459,-0.13114754098360656,-0.07377049180327869,-0.06967213114754099,-0.09016393442622951,-0.14754098360655737,-0.19672131147540983,-0.2827868852459016,-0.42213114754098363,-0.5368852459016393,-0.6229508196721312,-0.7172131147540983,-0.7622950819672132,-0.7991803278688525,-0.8442622950819673,-0.8852459016393444,-0.8934426229508198,-0.819672131147541,-0.7459016393442623,-0.7049180327868853,-0.6680327868852459,-0.6311475409836066,-0.6024590163934426,-0.6270491803278688,-0.639344262295082,-0.6024590163934426,-0.5614754098360656,-0.4959016393442623,-0.459016393442623,-0.42622950819672134,-0.38934426229508196,-0.3811475409836066,-0.3524590163934426,-0.30327868852459017,-0.24180327868852458,-0.21721311475409838,-0.13934426229508198,-0.12295081967213115,-0.09016393442622951,-0.06557377049180328,-0.03278688524590164,-0.04098360655737705,-0.01639344262295082,-0.02868852459016394,-0.004098360655737705,-0.00819672131147541,0.0,0.012295081967213115,0.00819672131147541,0.01639344262295082,0.02459016393442623,0.03278688524590164,0.02868852459016394,0.04098360655737705,0.04098360655737705,0.036885245901639344,0.045081967213114756,0.04918032786885246,0.06147540983606557,0.06557377049180328,0.06557377049180328,0.0778688524590164,0.0819672131147541,0.09426229508196722,0.09836065573770492,0.10245901639344263,0.09836065573770492,0.09016393442622951,0.09836065573770492,0.09426229508196722,0.11475409836065575,0.09836065573770492,0.13524590163934427,0.09836065573770492,0.11475409836065575,0.09836065573770492,0.10655737704918034,0.11885245901639344,0.11065573770491804,0.09836065573770492,0.09426229508196722,0.09836065573770492,0.09426229508196722,0.10655737704918034,0.10655737704918034,0.09836065573770492,0.10655737704918034,0.09016393442622951,0.0860655737704918,0.0778688524590164,0.0860655737704918,0.06967213114754099,0.07377049180327869,0.05737704918032788,0.06147540983606557,0.03278688524590164,0.04098360655737705,0.020491803278688527,0.03278688524590164,0.012295081967213115,-0.00819672131147541,0.0,-0.00819672131147541,-0.01639344262295082,-0.04098360655737705,-0.03278688524590164,-0.06557377049180328,-0.06557377049180328,-0.07377049180327869,-0.0778688524590164,-0.0860655737704918,-0.09836065573770492,-0.11065573770491804,-0.10655737704918034,-0.12295081967213115,-0.12295081967213115,-0.13934426229508198,-0.11475409836065575,-0.11885245901639344,-0.13524590163934427,-0.15163934426229508,-0.14754098360655737,-0.14754098360655737,-0.1598360655737705,-0.13934426229508198,-0.13934426229508198,-0.14344262295081966,-0.13934426229508198,-0.12295081967213115,-0.11885245901639344,-0.09836065573770492,-0.0860655737704918,-0.0819672131147541,-0.05737704918032788,-0.06557377049180328,-0.02868852459016394,-0.004098360655737705,0.02459016393442623,0.02459016393442623,0.036885245901639344,0.012295081967213115,-0.012295081967213115,-0.036885245901639344,-0.06147540983606557,-0.0860655737704918,-0.10655737704918034,-0.12295081967213115,-0.11885245901639344,-0.11475409836065575,-0.13934426229508198,-0.13934426229508198,-0.14344262295081966,-0.1557377049180328,-0.1557377049180328,-0.18442622950819673,-0.19672131147540983,-0.20901639344262296,-0.19672131147540983,-0.21311475409836067,-0.20901639344262296,-0.2254098360655738,-0.2254098360655738,-0.2295081967213115,-0.21311475409836067,-0.2254098360655738,-0.2254098360655738,-0.23360655737704916,-0.24180327868852458,-0.25,-0.2540983606557377,-0.2540983606557377,-0.2295081967213115,-0.2459016393442623,-0.2459016393442623,-0.24180327868852458,-0.23770491803278687,-0.23770491803278687,-0.2459016393442623,-0.24180327868852458,-0.23770491803278687,-0.23360655737704916,-0.2459016393442623,-0.23770491803278687,-0.23770491803278687,-0.26229508196721313,-0.25,-0.21721311475409838,-0.23360655737704916,-0.2295081967213115,-0.21311475409836067,-0.1680327868852459,-0.11885245901639344,-0.06557377049180328,-0.09836065573770492,-0.1557377049180328,-0.2213114754098361,-0.3073770491803279,-0.4426229508196722,-0.5860655737704918,-0.6885245901639344,-0.7950819672131147,-0.8524590163934427,-0.9672131147540983,-0.9918032786885246,-1.0,-0.9098360655737706,-0.8442622950819673,-0.8073770491803278,-0.7459016393442623,-0.7008196721311475,-0.7090163934426229,-0.6762295081967213,-0.6475409836065574,-0.5942622950819673,-0.5409836065573771,-0.4959016393442623,-0.48360655737704916,-0.43852459016393447,-0.4057377049180328,-0.3770491803278689,-0.3360655737704918,-0.2540983606557377,-0.23360655737704916,-0.1680327868852459,-0.13114754098360656,-0.11065573770491804,-0.09836065573770492,-0.06147540983606557,-0.05737704918032788,-0.04098360655737705,-0.04918032786885246,-0.03278688524590164,-0.020491803278688527,-0.00819672131147541,0.0,0.00819672131147541,0.02459016393442623,0.020491803278688527,0.02459016393442623,0.02868852459016394,0.02868852459016394,0.045081967213114756,0.045081967213114756,0.05737704918032788,0.07377049180327869,0.05737704918032788,0.06557377049180328,0.07377049180327869,0.09016393442622951,0.0819672131147541,0.09016393442622951,0.10245901639344263,0.11475409836065575,0.11475409836065575,0.11475409836065575,0.12295081967213115,0.13934426229508198,0.12295081967213115,0.12295081967213115,0.11475409836065575,0.14344262295081966,0.14754098360655737,0.14344262295081966,0.12704918032786885,0.13524590163934427,0.12704918032786885,0.11065573770491804,0.14344262295081966,0.15163934426229508,0.13114754098360656,0.11885245901639344,0.13114754098360656,0.11885245901639344,0.10655737704918034,0.10245901639344263,0.10245901639344263,0.11065573770491804,0.09836065573770492,0.0860655737704918,0.0778688524590164,0.0778688524590164,0.05327868852459017,0.07377049180327869,0.04918032786885246,0.04918032786885246,0.03278688524590164,0.020491803278688527,0.00819672131147541,-0.004098360655737705,-0.00819672131147541,-0.012295081967213115,-0.02868852459016394,-0.02868852459016394,-0.04918032786885246,-0.05737704918032788,-0.06967213114754099,-0.0778688524590164,-0.09426229508196722,-0.10245901639344263,N
-0.1557377049180328,-0.2213114754098361,-0.3073770491803279,-0.4426229508196722,-0.5860655737704918,-0.6885245901639344,-0.7950819672131147,-0.8524590163934427,-0.9672131147540983,-0.9918032786885246,-1.0,-0.9098360655737706,-0.8442622950819673,-0.8073770491803278,-0.7459016393442623,-0.7008196721311475,-0.7090163934426229,-0.6762295081967213,-0.6475409836065574,-0.5942622950819673,-0.5409836065573771,-0.4959016393442623,-0.48360655737704916,-0.43852459016393447,-0.4057377049180328,-0.3770491803278689,-0.3360655737704918,-0.2540983606557377,-0.23360655737704916,-0.1680327868852459,-0.13114754098360656,-0.11065573770491804,-0.09836065573770492,-0.06147540983606557,-0.05737704918032788,-0.04098360655737705,-0.04918032786885246,-0.03278688524590164,-0.020491803278688527,-0.00819672131147541,0.0,0.00819672131147541,0.02459016393442623,0.020491803278688527,0.02459016393442623,0.02868852459016394,0.02868852459016394,0.045081967213114756,0.045081967213114756,0.05737704918032788,0.07377049180327869,0.05737704918032788,0.06557377049180328,0.07377049180327869,0.09016393442622951,0.0819672131147541,0.09016393442622951,0.10245901639344263,0.11475409836065575,0.11475409836065575,0.11475409836065575,0.12295081967213115,0.13934426229508198,0.12295081967213115,0.12295081967213115,0.11475409836065575,0.14344262295081966,0.14754098360655737,0.14344262295081966,0.12704918032786885,0.13524590163934427,0.12704918032786885,0.11065573770491804,0.14344262295081966,0.15163934426229508,0.13114754098360656,0.11885245901639344,0.13114754098360656,0.11885245901639344,0.10655737704918034,0.10245901639344263,0.10245901639344263,0.11065573770491804,0.09836065573770492,0.0860655737704918,0.0778688524590164,0.0778688524590164,0.05327868852459017,0.07377049180327869,0.04918032786885246,0.04918032786885246,0.03278688524590164,0.020491803278688527,0.00819672131147541,-0.004098360655737705,-0.00819672131147541,-0.012295081967213115,-0.02868852459016394,-0.02868852459016394,-0.04918032786885246,-0.05737704918032788,-0.06967213114754099,-0.0778688524590164,-0.09426229508196722,-0.10245901639344263,-0.11475409836065575,-0.11475409836065575,-0.11065573770491804,-0.11885245901639344,-0.13114754098360656,-0.12295081967213115,-0.13114754098360656,-0.13934426229508198,-0.13934426229508198,-0.15163934426229508,-0.14754098360655737,-0.13524590163934427,-0.15163934426229508,-0.13114754098360656,-0.15163934426229508,-0.15163934426229508,-0.14344262295081966,-0.14344262295081966,-0.14754098360655737,-0.15163934426229508,-0.15163934426229508,-0.13524590163934427,-0.14754098360655737,-0.15163934426229508,-0.15163934426229508,-0.13934426229508198,-0.1557377049180328,-0.13934426229508198,-0.1557377049180328,-0.14344262295081966,-0.14754098360655737,-0.15163934426229508,-0.13114754098360656,-0.14754098360655737,-0.15163934426229508,-0.13934426229508198,-0.1639344262295082,-0.14754098360655737,-0.14754098360655737,-0.1598360655737705,-0.1639344262295082,-0.1680327868852459,-0.1598360655737705,-0.1557377049180328,-0.1680327868852459,-0.1639344262295082,-0.1639344262295082,-0.1762295081967213,-0.18442622950819673,-0.1639344262295082,-0.1639344262295082,-0.1721311475409836,-0.1721311475409836,-0.1721311475409836,-0.18442622950819673,-0.1680327868852459,-0.1721311475409836,-0.18442622950819673,-0.1680327868852459,-0.18852459016393444,-0.1762295081967213,-0.1639344262295082,-0.18852459016393444,-0.18442622950819673,-0.18032786885245902,-0.1762295081967213,-0.1721311475409836,-0.1762295081967213,-0.18442622950819673,-0.19262295081967212,-0.1762295081967213,-0.18032786885245902,-0.18442622950819673,-0.1762295081967213,-0.19672131147540983,-0.19262295081967212,-0.18852459016393444,-0.18852459016393444,-0.19672131147540983,-0.19672131147540983,-0.18442622950819673,-0.19672131147540983,-0.18442622950819673,-0.19672131147540983,-0.19262295081967212,-0.19672131147540983,-0.19262295081967212,-0.20491803278688525,-0.18032786885245902,-0.19672131147540983,-0.18442622950819673,-0.1762295081967213,-0.18852459016393444,-0.19672131147540983,-0.20491803278688525,-0.18442622950819673,-0.18852459016393444,-0.19262295081967212,-0.18852459016393444,-0.19262295081967212,-0.19262295081967212,-0.18442622950819673,-0.19262295081967212,-0.18852459016393444,-0.18442622950819673,-0.18442622950819673,-0.18442622950819673,-0.19262295081967212,-0.1762295081967213,-0.1762295081967213,-0.19262295081967212,-0.20081967213114754,-0.20491803278688525,-0.19672131147540983,-0.18852459016393444,-0.20081967213114754,-0.19672131147540983,-0.20081967213114754,-0.19672131147540983,-0.19672131147540983,-0.18442622950819673,-0.18852459016393444,-0.20491803278688525,-0.19262295081967212,-0.19672131147540983,-0.20491803278688525,-0.19262295081967212,-0.19672131147540983,-0.20491803278688525,-0.19672131147540983,-0.20081967213114754,-0.20491803278688525,-0.20491803278688525,-0.20491803278688525,-0.19672131147540983,-0.20491803278688525,-0.19672131147540983,-0.20901639344262296,-0.19262295081967212,-0.19672131147540983,-0.18852459016393444,-0.18852459016393444,-0.18442622950819673,-0.19262295081967212,-0.18032786885245902,-0.20081967213114754,-0.18442622950819673,-0.20081967213114754,-0.21311475409836067,-0.19672131147540983,-0.19262295081967212,-0.20491803278688525,-0.19262295081967212,-0.20901639344262296,-0.18852459016393444,-0.18852459016393444,-0.18032786885245902,-0.19262295081967212,-0.18442622950819673,-0.20901639344262296,-0.20901639344262296,-0.19262295081967212,-0.18442622950819673,-0.18442622950819673,-0.19262295081967212,-0.1762295081967213,-0.18032786885245902,-0.1721311475409836,-0.1557377049180328,-0.14344262295081966,-0.13114754098360656,-0.11885245901639344,-0.10655737704918034,-0.10655737704918034,-0.10655737704918034,-0.10245901639344263,-0.13524590163934427,-0.12295081967213115,-0.14344262295081966,-0.1680327868852459,-0.1598360655737705,-0.1557377049180328,-0.15163934426229508,-0.14754098360655737,-0.1598360655737705,-0.14344262295081966,-0.11885245901639344,-0.11475409836065575,-0.14344262295081966,-0.1639344262295082,-0.1680327868852459,-0.18032786885245902,-0.19672131147540983,-0.21311475409836067,-0.2254098360655738,N
-0.18032786885245902,-0.14754098360655737,-0.0778688524590164,-0.04098360655737705,-0.06557377049180328,-0.11065573770491804,-0.14754098360655737,-0.20491803278688525,-0.3114754098360656,-0.42213114754098363,-0.5163934426229508,-0.6229508196721312,-0.6557377049180328,-0.6926229508196722,-0.6967213114754098,-0.7254098360655737,-0.7868852459016393,-0.7991803278688525,-0.75,-0.7090163934426229,-0.6516393442622951,-0.6147540983606558,-0.5942622950819673,-0.5737704918032787,-0.5737704918032787,-0.5819672131147541,-0.5573770491803279,-0.5245901639344263,-0.5040983606557377,-0.4549180327868853,-0.43032786885245905,-0.43032786885245905,-0.4139344262295082,-0.36885245901639346,-0.3401639344262295,-0.3073770491803279,-0.26229508196721313,-0.20901639344262296,-0.1680327868852459,-0.12295081967213115,-0.09016393442622951,-0.0778688524590164,-0.07377049180327869,-0.04918032786885246,-0.04918032786885246,-0.02868852459016394,-0.03278688524590164,-0.020491803278688527,-0.02868852459016394,-0.02459016393442623,-0.020491803278688527,-0.01639344262295082,-0.00819672131147541,-0.012295081967213115,-0.004098360655737705,0.004098360655737705,0.00819672131147541,0.01639344262295082,0.00819672131147541,0.012295081967213115,0.012295081967213115,0.00819672131147541,0.045081967213114756,0.020491803278688527,0.02459016393442623,0.036885245901639344,0.04098360655737705,0.04918032786885246,0.05737704918032788,0.05737704918032788,0.06147540983606557,0.06557377049180328,0.07377049180327869,0.0778688524590164,0.07377049180327869,0.06147540983606557,0.07377049180327869,0.0860655737704918,0.06967213114754099,0.07377049180327869,0.06557377049180328,0.06967213114754099,0.06147540983606557,0.06967213114754099,0.06967213114754099,0.06147540983606557,0.07377049180327869,0.045081967213114756,0.04918032786885246,0.05737704918032788,0.05737704918032788,0.04918032786885246,0.045081967213114756,0.045081967213114756,0.05327868852459017,0.02459016393442623,0.02459016393442623,0.02459016393442623,0.00819672131147541,0.00819672131147541,-0.004098360655737705,0.00819672131147541,-0.00819672131147541,-0.012295081967213115,-0.020491803278688527,-0.03278688524590164,-0.036885245901639344,-0.02868852459016394,-0.04098360655737705,-0.05737704918032788,-0.045081967213114756,-0.07377049180327869,-0.0778688524590164,-0.06557377049180328,-0.07377049180327869,-0.09836065573770492,-0.11065573770491804,-0.10655737704918034,-0.10655737704918034,-0.11885245901639344,-0.11885245901639344,-0.14344262295081966,-0.11475409836065575,-0.11475409836065575,-0.12704918032786885,-0.13114754098360656,-0.13524590163934427,-0.13114754098360656,-0.15163934426229508,-0.14754098360655737,-0.14754098360655737,-0.1598360655737705,-0.15163934426229508,-0.1598360655737705,-0.15163934426229508,-0.1557377049180328,-0.15163934426229508,-0.1557377049180328,-0.14344262295081966,-0.1598360655737705,-0.1639344262295082,-0.1598360655737705,-0.18032786885245902,-0.1557377049180328,-0.1639344262295082,-0.1639344262295082,-0.14754098360655737,-0.13524590163934427,-0.1557377049180328,-0.14754098360655737,-0.1598360655737705,-0.13934426229508198,-0.14344262295081966,-0.1680327868852459,-0.15163934426229508,-0.13114754098360656,-0.1598360655737705,-0.1557377049180328,-0.1598360655737705,-0.1557377049180328,-0.1639344262295082,-0.1721311475409836,-0.18032786885245902,-0.18442622950819673,-0.18442622950819673,-0.18442622950819673,-0.18852459016393444,-0.18852459016393444,-0.18442622950819673,-0.18032786885245902,-0.19672131147540983,-0.19262295081967212,-0.19672131147540983,-0.20081967213114754,-0.19672131147540983,-0.21311475409836067,-0.20901639344262296,-0.2254098360655738,-0.21311475409836067,-0.20901639344262296,-0.19672131147540983,-0.1762295081967213,-0.20491803278688525,-0.21311475409836067,-0.20901639344262296,-0.20081967213114754,-0.20491803278688525,-0.21721311475409838,-0.2213114754098361,-0.19672131147540983,-0.21311475409836067,-0.21721311475409838,-0.21311475409836067,-0.19672131147540983,-0.20081967213114754,-0.21311475409836067,-0.21311475409836067,-0.19672131147540983,-0.19672131147540983,-0.20491803278688525,-0.20491803278688525,-0.21311475409836067,-0.21311475409836067,-0.2254098360655738,-0.21721311475409838,-0.2254098360655738,-0.2295081967213115,-0.21721311475409838,-0.2254098360655738,-0.2213114754098361,-0.2254098360655738,-0.2213114754098361,-0.21311475409836067,-0.2213114754098361,-0.21721311475409838,-0.21311475409836067,-0.2213114754098361,-0.2254098360655738,-0.21721311475409838,-0.21721311475409838,-0.18852459016393444,-0.18442622950819673,-0.18442622950819673,-0.1639344262295082,-0.1639344262295082,-0.15163934426229508,-0.12704918032786885,-0.12295081967213115,-0.14344262295081966,-0.14754098360655737,-0.15163934426229508,-0.1680327868852459,-0.1762295081967213,-0.19262295081967212,-0.19262295081967212,-0.1721311475409836,-0.18852459016393444,-0.18852459016393444,-0.1680327868852459,-0.1680327868852459,-0.14754098360655737,-0.13934426229508198,-0.13934426229508198,-0.1721311475409836,-0.18032786885245902,-0.18852459016393444,-0.21721311475409838,-0.23360655737704916,-0.2459016393442623,-0.2581967213114754,-0.2540983606557377,-0.25,-0.2459016393442623,-0.2581967213114754,-0.25,-0.24180327868852458,-0.24180327868852458,-0.2540983606557377,-0.25,-0.25,-0.23360655737704916,-0.2581967213114754,-0.23770491803278687,-0.25,-0.2459016393442623,-0.25,-0.25,-0.23770491803278687,-0.2581967213114754,-0.23770491803278687,-0.25,-0.23770491803278687,-0.24180327868852458,-0.2213114754098361,-0.23770491803278687,-0.2254098360655738,-0.2254098360655738,-0.21721311475409838,-0.18032786885245902,-0.10655737704918034,-0.06557377049180328,-0.0778688524590164,-0.13114754098360656,-0.1680327868852459,-0.2254098360655738,-0.3524590163934426,-0.47540983606557374,-0.5573770491803279,-0.6721311475409836,-0.7213114754098361,-0.7663934426229508,-0.8073770491803278,-0.8688524590163935,-0.8852459016393444,-0.7622950819672132,-0.7131147540983607,-0.6639344262295083,-0.6475409836065574,-0.6188524590163934,-0.5901639344262295,N
-0.21721311475409838,-0.18032786885245902,-0.10655737704918034,-0.06557377049180328,-0.0778688524590164,-0.13114754098360656,-0.1680327868852459,-0.2254098360655738,-0.3524590163934426,-0.47540983606557374,-0.5573770491803279,-0.6721311475409836,-0.7213114754098361,-0.7663934426229508,-0.8073770491803278,-0.8688524590163935,-0.8852459016393444,-0.7622950819672132,-0.7131147540983607,-0.6639344262295083,-0.6475409836065574,-0.6188524590163934,-0.5901639344262295,-0.6065573770491803,-0.6024590163934426,-0.5942622950819673,-0.5532786885245902,-0.5081967213114754,-0.48360655737704916,-0.459016393442623,-0.43442622950819676,-0.38934426229508196,-0.36065573770491804,-0.3278688524590164,-0.28688524590163933,-0.23360655737704916,-0.20901639344262296,-0.14754098360655737,-0.13114754098360656,-0.11885245901639344,-0.09016393442622951,-0.06147540983606557,-0.045081967213114756,-0.045081967213114756,-0.04098360655737705,-0.020491803278688527,-0.012295081967213115,-0.012295081967213115,-0.004098360655737705,0.004098360655737705,-0.004098360655737705,0.00819672131147541,0.020491803278688527,0.01639344262295082,0.02868852459016394,0.012295081967213115,0.02459016393442623,0.02459016393442623,0.04098360655737705,0.04918032786885246,0.06147540983606557,0.07377049180327869,0.05327868852459017,0.06147540983606557,0.07377049180327869,0.06967213114754099,0.0778688524590164,0.0860655737704918,0.0819672131147541,0.09426229508196722,0.09016393442622951,0.09426229508196722,0.09426229508196722,0.11065573770491804,0.10245901639344263,0.09426229508196722,0.09016393442622951,0.09016393442622951,0.10655737704918034,0.11475409836065575,0.11475409836065575,0.11065573770491804,0.09426229508196722,0.09016393442622951,0.0860655737704918,0.10655737704918034,0.10655737704918034,0.09016393442622951,0.07377049180327869,0.0778688524590164,0.07377049180327869,0.07377049180327869,0.07377049180327869,0.05737704918032788,0.06147540983606557,0.06147540983606557,0.04098360655737705,0.05327868852459017,0.02868852459016394,0.02868852459016394,0.004098360655737705,-0.00819672131147541,0.0,-0.01639344262295082,-0.02459016393442623,-0.04098360655737705,-0.05737704918032788,-0.05327868852459017,-0.06147540983606557,-0.07377049180327869,-0.0860655737704918,-0.0819672131147541,-0.09836065573770492,-0.10655737704918034,-0.11885245901639344,-0.12704918032786885,-0.12704918032786885,-0.13934426229508198,-0.15163934426229508,-0.1639344262295082,-0.14754098360655737,-0.15163934426229508,-0.1639344262295082,-0.1721311475409836,-0.1680327868852459,-0.18442622950819673,-0.18852459016393444,-0.1721311475409836,-0.18032786885245902,-0.18032786885245902,-0.18442622950819673,-0.18442622950819673,-0.19672131147540983,-0.18442622950819673,-0.18852459016393444,-0.18032786885245902,-0.18032786885245902,-0.18442622950819673,-0.19262295081967212,-0.1762295081967213,-0.18442622950819673,-0.1762295081967213,-0.18032786885245902,-0.1721311475409836,-0.18852459016393444,-0.1680327868852459,-0.19262295081967212,-0.19262295081967212,-0.1762295081967213,-0.1680327868852459,-0.1639344262295082,-0.1721311475409836,-0.1721311475409836,-0.1721311475409836,-0.1762295081967213,-0.18032786885245902,-0.18442622950819673,-0.18442622950819673,-0.19262295081967212,-0.19672131147540983,-0.19672131147540983,-0.18032786885245902,-0.18032786885245902,-0.18442622950819673,-0.18032786885245902,-0.20081967213114754,-0.19672131147540983,-0.20491803278688525,-0.21311475409836067,-0.21311475409836067,-0.21721311475409838,-0.2254098360655738,-0.2295081967213115,-0.21311475409836067,-0.20901639344262296,-0.20491803278688525,-0.21311475409836067,-0.21311475409836067,-0.21311475409836067,-0.2213114754098361,-0.21311475409836067,-0.21311475409836067,-0.21311475409836067,-0.2254098360655738,-0.2254098360655738,-0.2254098360655738,-0.21721311475409838,-0.21721311475409838,-0.20901639344262296,-0.20491803278688525,-0.2213114754098361,-0.21721311475409838,-0.23360655737704916,-0.2295081967213115,-0.20901639344262296,-0.2254098360655738,-0.2295081967213115,-0.2213114754098361,-0.2295081967213115,-0.23770491803278687,-0.2213114754098361,-0.2213114754098361,-0.2213114754098361,-0.21721311475409838,-0.2254098360655738,-0.2254098360655738,-0.21311475409836067,-0.2213114754098361,-0.21311475409836067,-0.21311475409836067,-0.21721311475409838,-0.23770491803278687,-0.2213114754098361,-0.2213114754098361,-0.21311475409836067,-0.21311475409836067,-0.20491803278688525,-0.20081967213114754,-0.19672131147540983,-0.18442622950819673,-0.1557377049180328,-0.15163934426229508,-0.13524590163934427,-0.12295081967213115,-0.13934426229508198,-0.13934426229508198,-0.14344262295081966,-0.14754098360655737,-0.1762295081967213,-0.1639344262295082,-0.18032786885245902,-0.18032786885245902,-0.19262295081967212,-0.18442622950819673,-0.18032786885245902,-0.1721311475409836,-0.1557377049180328,-0.11885245901639344,-0.12295081967213115,-0.13114754098360656,-0.13114754098360656,-0.1598360655737705,-0.18032786885245902,-0.20901639344262296,-0.2213114754098361,-0.23360655737704916,-0.23360655737704916,-0.2295081967213115,-0.2254098360655738,-0.2213114754098361,-0.2213114754098361,-0.2295081967213115,-0.2254098360655738,-0.2213114754098361,-0.2213114754098361,-0.2254098360655738,-0.2295081967213115,-0.2295081967213115,-0.2213114754098361,-0.19672131147540983,-0.2213114754098361,-0.2213114754098361,-0.23360655737704916,-0.2295081967213115,-0.2295081967213115,-0.2213114754098361,-0.2213114754098361,-0.2213114754098361,-0.20081967213114754,-0.21721311475409838,-0.20491803278688525,-0.20081967213114754,-0.18852459016393444,-0.13114754098360656,-0.09016393442622951,-0.05737704918032788,-0.04918032786885246,-0.0819672131147541,-0.12704918032786885,-0.18852459016393444,-0.3073770491803279,-0.43032786885245905,-0.5163934426229508,-0.6024590163934426,-0.680327868852459,-0.7049180327868853,-0.7418032786885246,-0.7540983606557378,-0.7991803278688525,-0.819672131147541,-0.7950819672131147,-0.7336065573770492,-0.6967213114754098,-0.6434426229508197,-0.6311475409836066,-0.5737704918032787,-0.5942622950819673,-0.5737704918032787,-0.5778688524590164,-0.5450819672131147,N
-0.20081967213114754,-0.18852459016393444,-0.13114754098360656,-0.09016393442622951,-0.05737704918032788,-0.04918032786885246,-0.0819672131147541,-0.12704918032786885,-0.18852459016393444,-0.3073770491803279,-0.43032786885245905,-0.5163934426229508,-0.6024590163934426,-0.680327868852459,-0.7049180327868853,-0.7418032786885246,-0.7540983606557378,-0.7991803278688525,-0.819672131147541,-0.7950819672131147,-0.7336065573770492,-0.6967213114754098,-0.6434426229508197,-0.6311475409836066,-0.5737704918032787,-0.5942622950819673,-0.5737704918032787,-0.5778688524590164,-0.5450819672131147,-0.5204918032786885,-0.47131147540983603,-0.42622950819672134,-0.4139344262295082,-0.3975409836065574,-0.36475409836065575,-0.33196721311475413,-0.29098360655737704,-0.2459016393442623,-0.19262295081967212,-0.12704918032786885,-0.09836065573770492,-0.06557377049180328,-0.05737704918032788,-0.04098360655737705,-0.02459016393442623,-0.020491803278688527,-0.004098360655737705,-0.004098360655737705,0.01639344262295082,0.00819672131147541,0.00819672131147541,0.0,0.020491803278688527,0.00819672131147541,0.02868852459016394,0.03278688524590164,0.036885245901639344,0.04918032786885246,0.045081967213114756,0.06147540983606557,0.06967213114754099,0.05327868852459017,0.06147540983606557,0.05737704918032788,0.05737704918032788,0.06147540983606557,0.0819672131147541,0.09016393442622951,0.0778688524590164,0.09016393442622951,0.09836065573770492,0.09426229508196722,0.11885245901639344,0.09836065573770492,0.09016393442622951,0.09836065573770492,0.11065573770491804,0.11065573770491804,0.12295081967213115,0.11475409836065575,0.11065573770491804,0.11475409836065575,0.11065573770491804,0.09836065573770492,0.10245901639344263,0.10245901639344263,0.09836065573770492,0.0860655737704918,0.09836065573770492,0.09836065573770492,0.0778688524590164,0.07377049180327869,0.06967213114754099,0.05737704918032788,0.04918032786885246,0.04918032786885246,0.036885245901639344,0.036885245901639344,0.020491803278688527,0.004098360655737705,0.0,0.0,-0.012295081967213115,-0.02868852459016394,-0.02868852459016394,-0.045081967213114756,-0.045081967213114756,-0.04098360655737705,-0.06557377049180328,-0.06147540983606557,-0.09016393442622951,-0.09426229508196722,-0.09836065573770492,-0.11885245901639344,-0.10245901639344263,-0.13524590163934427,-0.13114754098360656,-0.15163934426229508,-0.14754098360655737,-0.14344262295081966,-0.15163934426229508,-0.1557377049180328,-0.1598360655737705,-0.1680327868852459,-0.1762295081967213,-0.1721311475409836,-0.1639344262295082,-0.18852459016393444,-0.1762295081967213,-0.1762295081967213,-0.19262295081967212,-0.1721311475409836,-0.18032786885245902,-0.1680327868852459,-0.18032786885245902,-0.18852459016393444,-0.18032786885245902,-0.18032786885245902,-0.18852459016393444,-0.18032786885245902,-0.1680327868852459,-0.1721311475409836,-0.1557377049180328,-0.1680327868852459,-0.1680327868852459,-0.1639344262295082,-0.14754098360655737,-0.1680327868852459,-0.18032786885245902,-0.1762295081967213,-0.1721311475409836,-0.1762295081967213,-0.1721311475409836,-0.1721311475409836,-0.1639344262295082,-0.18442622950819673,-0.1721311475409836,-0.1721311475409836,-0.18442622950819673,-0.18032786885245902,-0.1762295081967213,-0.1762295081967213,-0.18032786885245902,-0.1721311475409836,-0.19262295081967212,-0.18852459016393444,-0.19672131147540983,-0.20081967213114754,-0.19672131147540983,-0.19672131147540983,-0.20081967213114754,-0.18852459016393444,-0.20491803278688525,-0.19672131147540983,-0.19672131147540983,-0.19672131147540983,-0.21721311475409838,-0.21311475409836067,-0.20081967213114754,-0.19262295081967212,-0.21721311475409838,-0.20491803278688525,-0.20491803278688525,-0.21721311475409838,-0.21721311475409838,-0.21311475409836067,-0.20491803278688525,-0.2254098360655738,-0.21311475409836067,-0.21311475409836067,-0.20491803278688525,-0.20491803278688525,-0.2213114754098361,-0.19672131147540983,-0.21311475409836067,-0.21311475409836067,-0.20491803278688525,-0.20901639344262296,-0.21311475409836067,-0.21311475409836067,-0.20901639344262296,-0.21721311475409838,-0.20491803278688525,-0.20081967213114754,-0.20081967213114754,-0.21311475409836067,-0.21721311475409838,-0.20901639344262296,-0.20901639344262296,-0.20901639344262296,-0.20491803278688525,-0.19672131147540983,-0.18852459016393444,-0.18032786885245902,-0.18032786885245902,-0.1639344262295082,-0.14344262295081966,-0.12704918032786885,-0.12704918032786885,-0.09836065573770492,-0.12295081967213115,-0.13524590163934427,-0.14754098360655737,-0.14754098360655737,-0.1680327868852459,-0.1598360655737705,-0.18032786885245902,-0.1721311475409836,-0.1721311475409836,-0.1721311475409836,-0.1721311475409836,-0.15163934426229508,-0.13934426229508198,-0.13114754098360656,-0.12704918032786885,-0.14344262295081966,-0.1598360655737705,-0.18442622950819673,-0.20491803278688525,-0.20081967213114754,-0.2254098360655738,-0.23770491803278687,-0.2295081967213115,-0.2254098360655738,-0.2295081967213115,-0.2254098360655738,-0.2254098360655738,-0.21721311475409838,-0.20901639344262296,-0.21721311475409838,-0.2254098360655738,-0.21721311475409838,-0.2254098360655738,-0.2254098360655738,-0.23360655737704916,-0.2254098360655738,-0.20901639344262296,-0.21311475409836067,-0.23360655737704916,-0.2254098360655738,-0.2254098360655738,-0.21311475409836067,-0.2213114754098361,-0.20081967213114754,-0.20081967213114754,-0.20491803278688525,-0.19672131147540983,-0.1721311475409836,-0.1557377049180328,-0.09016393442622951,-0.05737704918032788,-0.06967213114754099,-0.11065573770491804,-0.14754098360655737,-0.21311475409836067,-0.36065573770491804,-0.4426229508196722,-0.5409836065573771,-0.6516393442622951,-0.6885245901639344,-0.7213114754098361,-0.75,-0.7745901639344263,-0.7868852459016393,-0.8155737704918032,-0.7786885245901639,-0.7336065573770492,-0.6639344262295083,-0.639344262295082,-0.610655737704918,-0.5778688524590164,-0.5942622950819673,-0.5942622950819673,-0.569672131147541,-0.5532786885245902,-0.5040983606557377,-0.4672131147540983,-0.43442622950819676,-0.4098360655737705,-0.38524590163934425,N
-0.1721311475409836,-0.1557377049180328,-0.09016393442622951,-0.05737704918032788,-0.06967213114754099,-0.11065573770491804,-0.14754098360655737,-0.21311475409836067,-0.36065573770491804,-0.4426229508196722,-0.5409836065573771,-0.6516393442622951,-0.6885245901639344,-0.7213114754098361,-0.75,-0.7745901639344263,-0.7868852459016393,-0.8155737704918032,-0.7786885245901639,-0.7336065573770492,-0.6639344262295083,-0.639344262295082,-0.610655737704918,-0.5778688524590164,-0.5942622950819673,-0.5942622950819673,-0.569672131147541,-0.5532786885245902,-0.5040983606557377,-0.4672131147540983,-0.43442622950819676,-0.4098360655737705,-0.38524590163934425,-0.36475409836065575,-0.319672131147541,-0.29918032786885246,-0.23360655737704916,-0.18032786885245902,-0.13934426229508198,-0.0819672131147541,-0.07377049180327869,-0.045081967213114756,-0.036885245901639344,-0.02459016393442623,-0.01639344262295082,-0.01639344262295082,0.0,0.0,0.020491803278688527,0.00819672131147541,0.020491803278688527,0.01639344262295082,0.045081967213114756,0.020491803278688527,0.036885245901639344,0.045081967213114756,0.04918032786885246,0.045081967213114756,0.04918032786885246,0.04918032786885246,0.05737704918032788,0.06147540983606557,0.0819672131147541,0.0860655737704918,0.06967213114754099,0.07377049180327869,0.0778688524590164,0.0860655737704918,0.0778688524590164,0.09426229508196722,0.09016393442622951,0.09836065573770492,0.09836065573770492,0.10245901639344263,0.10245901639344263,0.09426229508196722,0.11065573770491804,0.10245901639344263,0.11475409836065575,0.10655737704918034,0.10655737704918034,0.10655737704918034,0.11065573770491804,0.09836065573770492,0.09016393442622951,0.09016393442622951,0.09426229508196722,0.07377049180327869,0.0778688524590164,0.06967213114754099,0.06967213114754099,0.06147540983606557,0.07377049180327869,0.05737704918032788,0.045081967213114756,0.05327868852459017,0.05327868852459017,0.03278688524590164,0.02459016393442623,0.020491803278688527,0.00819672131147541,-0.004098360655737705,-0.012295081967213115,-0.020491803278688527,-0.02868852459016394,-0.03278688524590164,-0.036885245901639344,-0.06147540983606557,-0.05737704918032788,-0.06557377049180328,-0.07377049180327869,-0.09016393442622951,-0.09836065573770492,0.0,0.0,0.0,0.0,0.0,0.0,0.0,0.0,0.0,0.0,0.0,0.0,0.0,0.0,0.0,0.0,0.0,0.0,0.0,0.0,0.0,0.0,0.0,0.0,0.0,0.0,0.0,0.0,0.0,0.0,0.0,0.0,0.0,0.0,0.0,0.0,0.0,0.0,0.0,0.0,0.0,0.0,0.0,0.0,0.0,0.0,0.0,0.0,0.0,0.0,0.0,0.0,0.0,0.0,0.0,0.0,0.0,0.0,0.0,0.0,0.0,0.0,0.0,0.0,0.0,0.0,0.0,0.0,0.0,0.0,0.0,0.0,0.0,0.0,0.0,0.0,0.0,0.0,0.0,0.0,0.0,0.0,0.0,0.0,0.0,0.0,0.0,0.0,0.0,0.0,0.0,0.0,0.0,0.0,0.0,0.0,0.0,0.0,0.0,0.0,0.0,0.0,0.0,0.0,0.0,0.0,0.0,0.0,0.0,0.0,0.0,0.0,0.0,0.0,0.0,0.0,0.0,0.0,0.0,0.0,0.0,0.0,0.0,0.0,0.0,0.0,0.0,0.0,0.0,0.0,0.0,0.0,0.0,0.0,0.0,0.0,0.0,0.0,0.0,0.0,0.0,0.0,0.0,0.0,0.0,0.0,0.0,0.0,0.0,0.0,0.0,0.0,0.0,0.0,0.0,0.0,0.0,0.0,0.0,0.0,0.0,0.0,0.0,0.0,0.0,0.0,0.0,0.0,0.0,0.0,0.0,0.0,0.0,0.0,0.0,0.0,0.0,0.0,0.0,0.0,0.0,0.0,0.0,0.0,0.0,0.0,0.0,N
-0.20731707317073172,-0.19105691056910568,-0.22764227642276424,-0.1869918699186992,-0.1991869918699187,-0.1951219512195122,-0.1991869918699187,-0.19105691056910568,-0.2032520325203252,-0.1991869918699187,-0.1991869918699187,-0.18292682926829268,-0.19105691056910568,-0.18292682926829268,-0.20731707317073172,-0.17886178861788618,-0.18292682926829268,-0.18292682926829268,-0.18292682926829268,-0.17886178861788618,-0.17479674796747968,-0.19105691056910568,-0.17073170731707316,-0.17479674796747968,-0.1626016260162602,-0.15447154471544716,-0.14634146341463414,-0.12601626016260162,-0.11788617886178861,-0.10569105691056911,-0.0975609756097561,-0.0813008130081301,-0.07723577235772358,-0.1016260162601626,-0.12195121951219512,-0.13008130081300814,-0.14227642276422764,-0.16666666666666666,-0.15853658536585366,-0.1626016260162602,-0.15447154471544716,-0.13414634146341464,-0.14634146341463414,-0.14634146341463414,-0.11382113821138212,-0.10569105691056911,-0.11382113821138212,-0.12601626016260162,-0.14634146341463414,-0.15447154471544716,-0.1991869918699187,-0.20731707317073172,-0.22357723577235775,-0.21544715447154472,-0.23170731707317072,-0.21951219512195125,-0.21951219512195125,-0.22357723577235775,-0.21544715447154472,-0.21951219512195125,-0.21951219512195125,-0.22357723577235775,-0.21544715447154472,-0.21951219512195125,-0.22357723577235775,-0.22357723577235775,-0.21138211382113822,-0.1951219512195122,-0.20731707317073172,-0.20731707317073172,-0.20731707317073172,-0.22357723577235775,-0.21544715447154472,-0.21951219512195125,-0.21951219512195125,-0.2032520325203252,-0.21544715447154472,-0.21138211382113822,-0.1869918699186992,-0.19105691056910568,-0.17073170731707316,-0.13821138211382114,-0.11382113821138212,-0.04878048780487805,-0.044715447154471545,-0.07723577235772358,-0.11382113821138212,-0.17886178861788618,-0.26422764227642276,-0.4024390243902439,-0.5,-0.6056910569105691,-0.6585365853658537,-0.6991869918699187,-0.7398373983739838,-0.7642276422764227,-0.7967479674796748,-0.8211382113821138,-0.7682926829268293,-0.7032520325203252,-0.6585365853658537,-0.6260162601626017,-0.5975609756097561,-0.5650406504065041,-0.5772357723577236,-0.573170731707317,-0.5609756097560975,-0.540650406504065,-0.5040650406504065,-0.46747967479674796,-0.42276422764227645,-0.4065040650406504,-0.3699186991869919,-0.3414634146341463,-0.3170731707317073,-0.2601626016260163,-0.21544715447154472,-0.16666666666666666,-0.11788617886178861,-0.08536585365853658,-0.06504065040650407,-0.04065040650406505,-0.016260162601626018,-0.008130081300813009,-0.008130081300813009,-0.008130081300813009,0.012195121951219513,-0.0040650406504065045,0.024390243902439025,0.0040650406504065045,0.020325203252032523,0.012195121951219513,0.020325203252032523,0.032520325203252036,0.02845528455284553,0.024390243902439025,0.036585365853658534,0.044715447154471545,0.04878048780487805,0.044715447154471545,0.052845528455284556,0.06504065040650407,0.06504065040650407,0.06097560975609756,0.052845528455284556,0.06910569105691057,0.06097560975609756,0.07723577235772358,0.0813008130081301,0.06910569105691057,0.07723577235772358,0.07317073170731707,0.0934959349593496,0.08536585365853658,0.0813008130081301,0.08536585365853658,0.0934959349593496,0.08943089430894309,0.08536585365853658,0.08536585365853658,0.06910569105691057,0.0813008130081301,0.07723577235772358,0.07723577235772358,0.08536585365853658,0.07723577235772358,0.07317073170731707,0.06910569105691057,0.06910569105691057,0.07317073170731707,0.06504065040650407,0.04878048780487805,0.04065040650406505,0.032520325203252036,0.044715447154471545,0.016260162601626018,0.012195121951219513,0.016260162601626018,0.0040650406504065045,-0.008130081300813009,-0.0040650406504065045,-0.012195121951219513,-0.016260162601626018,-0.020325203252032523,-0.04065040650406505,-0.04878048780487805,-0.06097560975609756,-0.06910569105691057,-0.08536585365853658,-0.0975609756097561,-0.0975609756097561,-0.1016260162601626,-0.11382113821138212,-0.15447154471544716,-0.13821138211382114,-0.14634146341463414,-0.1626016260162602,-0.17073170731707316,-0.1626016260162602,-0.17479674796747968,-0.17479674796747968,-0.18292682926829268,-0.1869918699186992,-0.2032520325203252,-0.1991869918699187,-0.1951219512195122,-0.21544715447154472,-0.20731707317073172,-0.20731707317073172,-0.20731707317073172,-0.1991869918699187,-0.21544715447154472,-0.20731707317073172,-0.21544715447154472,-0.21138211382113822,-0.1991869918699187,-0.21544715447154472,-0.21951219512195125,-0.21138211382113822,-0.20731707317073172,-0.19105691056910568,-0.19105691056910568,-0.19105691056910568,-0.1991869918699187,-0.1951219512195122,-0.19105691056910568,-0.1869918699186992,-0.19105691056910568,-0.2032520325203252,-0.18292682926829268,-0.19105691056910568,-0.1951219512195122,-0.19105691056910568,-0.1951219512195122,-0.19105691056910568,-0.1991869918699187,-0.2032520325203252,-0.1951219512195122,-0.1951219512195122,-0.2032520325203252,-0.19105691056910568,-0.19105691056910568,-0.2032520325203252,-0.20731707317073172,-0.1991869918699187,-0.1991869918699187,-0.21951219512195125,-0.21951219512195125,-0.21951219512195125,-0.21544715447154472,-0.20731707317073172,-0.21138211382113822,-0.1991869918699187,-0.21544715447154472,-0.22357723577235775,-0.21138211382113822,-0.22357723577235775,-0.21544715447154472,-0.21138211382113822,-0.20731707317073172,-0.20731707317073172,-0.23170731707317072,-0.21544715447154472,-0.21138211382113822,-0.20731707317073172,-0.20731707317073172,-0.2032520325203252,-0.21951219512195125,-0.21951219512195125,-0.21138211382113822,-0.21138211382113822,-0.22764227642276424,-0.22764227642276424,-0.23170731707317072,-0.21951219512195125,-0.21138211382113822,-0.21544715447154472,-0.21951219512195125,-0.2032520325203252,-0.20731707317073172,-0.22357723577235775,-0.20731707317073172,-0.1951219512195122,-0.1951219512195122,-0.1991869918699187,-0.1991869918699187,-0.1951219512195122,-0.2032520325203252,-0.1951219512195122,-0.19105691056910568,-0.18292682926829268,-0.2032520325203252,-0.19105691056910568,-0.1869918699186992,-0.1869918699186992,-0.21138211382113822,-0.19105691056910568,-0.1951219512195122,-0.1991869918699187,-0.17073170731707316,N
-0.19105691056910568,-0.17073170731707316,-0.13821138211382114,-0.11382113821138212,-0.04878048780487805,-0.044715447154471545,-0.07723577235772358,-0.11382113821138212,-0.17886178861788618,-0.26422764227642276,-0.4024390243902439,-0.5,-0.6056910569105691,-0.6585365853658537,-0.6991869918699187,-0.7398373983739838,-0.7642276422764227,-0.7967479674796748,-0.8211382113821138,-0.7682926829268293,-0.7032520325203252,-0.6585365853658537,-0.6260162601626017,-0.5975609756097561,-0.5650406504065041,-0.5772357723577236,-0.573170731707317,-0.5609756097560975,-0.540650406504065,-0.5040650406504065,-0.46747967479674796,-0.42276422764227645,-0.4065040650406504,-0.3699186991869919,-0.3414634146341463,-0.3170731707317073,-0.2601626016260163,-0.21544715447154472,-0.16666666666666666,-0.11788617886178861,-0.08536585365853658,-0.06504065040650407,-0.04065040650406505,-0.016260162601626018,-0.008130081300813009,-0.008130081300813009,-0.008130081300813009,0.012195121951219513,-0.0040650406504065045,0.024390243902439025,0.0040650406504065045,0.020325203252032523,0.012195121951219513,0.020325203252032523,0.032520325203252036,0.02845528455284553,0.024390243902439025,0.036585365853658534,0.044715447154471545,0.04878048780487805,0.044715447154471545,0.052845528455284556,0.06504065040650407,0.06504065040650407,0.06097560975609756,0.052845528455284556,0.06910569105691057,0.06097560975609756,0.07723577235772358,0.0813008130081301,0.06910569105691057,0.07723577235772358,0.07317073170731707,0.0934959349593496,0.08536585365853658,0.0813008130081301,0.08536585365853658,0.0934959349593496,0.08943089430894309,0.08536585365853658,0.08536585365853658,0.06910569105691057,0.0813008130081301,0.07723577235772358,0.07723577235772358,0.08536585365853658,0.07723577235772358,0.07317073170731707,0.06910569105691057,0.06910569105691057,0.07317073170731707,0.06504065040650407,0.04878048780487805,0.04065040650406505,0.032520325203252036,0.044715447154471545,0.016260162601626018,0.012195121951219513,0.016260162601626018,0.0040650406504065045,-0.008130081300813009,-0.0040650406504065045,-0.012195121951219513,-0.016260162601626018,-0.020325203252032523,-0.04065040650406505,-0.04878048780487805,-0.06097560975609756,-0.06910569105691057,-0.08536585365853658,-0.0975609756097561,-0.0975609756097561,-0.1016260162601626,-0.11382113821138212,-0.15447154471544716,-0.13821138211382114,-0.14634146341463414,-0.1626016260162602,-0.17073170731707316,-0.1626016260162602,-0.17479674796747968,-0.17479674796747968,-0.18292682926829268,-0.1869918699186992,-0.2032520325203252,-0.1991869918699187,-0.1951219512195122,-0.21544715447154472,-0.20731707317073172,-0.20731707317073172,-0.20731707317073172,-0.1991869918699187,-0.21544715447154472,-0.20731707317073172,-0.21544715447154472,-0.21138211382113822,-0.1991869918699187,-0.21544715447154472,-0.21951219512195125,-0.21138211382113822,-0.20731707317073172,-0.19105691056910568,-0.19105691056910568,-0.19105691056910568,-0.1991869918699187,-0.1951219512195122,-0.19105691056910568,-0.1869918699186992,-0.19105691056910568,-0.2032520325203252,-0.18292682926829268,-0.19105691056910568,-0.1951219512195122,-0.19105691056910568,-0.1951219512195122,-0.19105691056910568,-0.1991869918699187,-0.2032520325203252,-0.1951219512195122,-0.1951219512195122,-0.2032520325203252,-0.19105691056910568,-0.19105691056910568,-0.2032520325203252,-0.20731707317073172,-0.1991869918699187,-0.1991869918699187,-0.21951219512195125,-0.21951219512195125,-0.21951219512195125,-0.21544715447154472,-0.20731707317073172,-0.21138211382113822,-0.1991869918699187,-0.21544715447154472,-0.22357723577235775,-0.21138211382113822,-0.22357723577235775,-0.21544715447154472,-0.21138211382113822,-0.20731707317073172,-0.20731707317073172,-0.23170731707317072,-0.21544715447154472,-0.21138211382113822,-0.20731707317073172,-0.20731707317073172,-0.2032520325203252,-0.21951219512195125,-0.21951219512195125,-0.21138211382113822,-0.21138211382113822,-0.22764227642276424,-0.22764227642276424,-0.23170731707317072,-0.21951219512195125,-0.21138211382113822,-0.21544715447154472,-0.21951219512195125,-0.2032520325203252,-0.20731707317073172,-0.22357723577235775,-0.20731707317073172,-0.1951219512195122,-0.1951219512195122,-0.1991869918699187,-0.1991869918699187,-0.1951219512195122,-0.2032520325203252,-0.1951219512195122,-0.19105691056910568,-0.18292682926829268,-0.2032520325203252,-0.19105691056910568,-0.1869918699186992,-0.1869918699186992,-0.21138211382113822,-0.19105691056910568,-0.1951219512195122,-0.1991869918699187,-0.17073170731707316,-0.1626016260162602,-0.15853658536585366,-0.13008130081300814,-0.12195121951219512,-0.13821138211382114,-0.12601626016260162,-0.14227642276422764,-0.15040650406504066,-0.15853658536585366,-0.17073170731707316,-0.15853658536585366,-0.17886178861788618,-0.17073170731707316,-0.1869918699186992,-0.17479674796747968,-0.17073170731707316,-0.15040650406504066,-0.13821138211382114,-0.13414634146341464,-0.13414634146341464,-0.15040650406504066,-0.17886178861788618,-0.1869918699186992,-0.1991869918699187,-0.22764227642276424,-0.23577235772357721,-0.23983739837398374,-0.23983739837398374,-0.24796747967479674,-0.23983739837398374,-0.22764227642276424,-0.23577235772357721,-0.23577235772357721,-0.23170731707317072,-0.22764227642276424,-0.23170731707317072,-0.23170731707317072,-0.23983739837398374,-0.23577235772357721,-0.23170731707317072,-0.22764227642276424,-0.21951219512195125,-0.23983739837398374,-0.23170731707317072,-0.23170731707317072,-0.21544715447154472,-0.23577235772357721,-0.23577235772357721,-0.22357723577235775,-0.22764227642276424,-0.22764227642276424,-0.21138211382113822,-0.21544715447154472,-0.1991869918699187,-0.17479674796747968,-0.10975609756097562,-0.06910569105691057,-0.06910569105691057,-0.10975609756097562,-0.14634146341463414,-0.20731707317073172,-0.3048780487804878,-0.43089430894308944,-0.540650406504065,-0.6300813008130082,-0.7032520325203252,-0.7439024390243902,-0.7845528455284553,-0.8048780487804879,-0.7439024390243902,-0.6910569105691057,-0.6666666666666666,-0.6260162601626017,-0.6016260162601627,-0.6178861788617886,-0.6260162601626017,-0.5975609756097561,-0.5609756097560975,-0.524390243902439,N
-0.14634146341463414,-0.20731707317073172,-0.3048780487804878,-0.43089430894308944,-0.540650406504065,-0.6300813008130082,-0.7032520325203252,-0.7439024390243902,-0.7845528455284553,-0.8048780487804879,-0.7439024390243902,-0.6910569105691057,-0.6666666666666666,-0.6260162601626017,-0.6016260162601627,-0.6178861788617886,-0.6260162601626017,-0.5975609756097561,-0.5609756097560975,-0.524390243902439,-0.47154471544715443,-0.46341463414634143,-0.43089430894308944,-0.3861788617886179,-0.35365853658536583,-0.33739837398373984,-0.3008130081300813,-0.25203252032520324,-0.1951219512195122,-0.14634146341463414,-0.12195121951219512,-0.11382113821138212,-0.0934959349593496,-0.07317073170731707,-0.07723577235772358,-0.06097560975609756,-0.04878048780487805,-0.032520325203252036,-0.02845528455284553,-0.02845528455284553,-0.012195121951219513,-0.024390243902439025,-0.024390243902439025,-0.024390243902439025,0.0,-0.016260162601626018,-0.0040650406504065045,0.008130081300813009,0.0,0.0,0.0,0.0040650406504065045,0.008130081300813009,0.0040650406504065045,0.02845528455284553,0.036585365853658534,0.02845528455284553,0.02845528455284553,0.036585365853658534,0.052845528455284556,0.044715447154471545,0.05691056910569106,0.024390243902439025,0.04878048780487805,0.052845528455284556,0.06097560975609756,0.052845528455284556,0.044715447154471545,0.052845528455284556,0.052845528455284556,0.052845528455284556,0.052845528455284556,0.04065040650406505,0.05691056910569106,0.052845528455284556,0.044715447154471545,0.04878048780487805,0.044715447154471545,0.032520325203252036,0.020325203252032523,0.036585365853658534,0.024390243902439025,0.020325203252032523,0.020325203252032523,0.016260162601626018,0.0040650406504065045,0.008130081300813009,0.0,-0.020325203252032523,-0.012195121951219513,-0.016260162601626018,-0.02845528455284553,-0.036585365853658534,-0.052845528455284556,-0.04878048780487805,-0.07723577235772358,-0.06097560975609756,-0.0813008130081301,-0.08943089430894309,-0.0975609756097561,-0.0934959349593496,-0.11382113821138212,-0.12195121951219512,-0.11382113821138212,-0.13821138211382114,-0.15447154471544716,-0.15447154471544716,-0.17479674796747968,-0.17479674796747968,-0.16666666666666666,-0.1869918699186992,-0.1869918699186992,-0.1951219512195122,-0.1951219512195122,-0.2032520325203252,-0.2032520325203252,-0.20731707317073172,-0.21544715447154472,-0.2032520325203252,-0.1951219512195122,-0.21138211382113822,-0.2032520325203252,-0.20731707317073172,-0.2032520325203252,-0.21138211382113822,-0.21138211382113822,-0.22357723577235775,-0.21951219512195125,-0.21544715447154472,-0.21138211382113822,-0.20731707317073172,-0.2032520325203252,-0.1991869918699187,-0.19105691056910568,-0.2032520325203252,-0.1991869918699187,-0.1869918699186992,-0.18292682926829268,-0.17886178861788618,-0.18292682926829268,-0.1951219512195122,-0.19105691056910568,-0.1869918699186992,-0.17479674796747968,-0.18292682926829268,-0.1869918699186992,-0.1869918699186992,-0.18292682926829268,-0.1869918699186992,-0.18292682926829268,-0.18292682926829268,-0.1951219512195122,-0.1951219512195122,-0.19105691056910568,-0.20731707317073172,-0.21138211382113822,-0.21138211382113822,-0.21138211382113822,-0.21544715447154472,-0.20731707317073172,-0.21544715447154472,-0.21138211382113822,-0.2032520325203252,-0.2032520325203252,-0.22357723577235775,-0.1991869918699187,-0.21138211382113822,-0.20731707317073172,-0.21544715447154472,-0.21544715447154472,-0.22357723577235775,-0.21138211382113822,-0.20731707317073172,-0.21544715447154472,-0.21951219512195125,-0.21138211382113822,-0.21138211382113822,-0.20731707317073172,-0.21544715447154472,-0.21138211382113822,-0.23170731707317072,-0.21138211382113822,-0.21951219512195125,-0.21544715447154472,-0.21951219512195125,-0.21544715447154472,-0.22357723577235775,-0.21951219512195125,-0.21951219512195125,-0.1951219512195122,-0.23170731707317072,-0.22357723577235775,-0.22357723577235775,-0.21951219512195125,-0.22357723577235775,-0.21138211382113822,-0.22357723577235775,-0.21138211382113822,-0.22357723577235775,-0.23577235772357721,-0.21951219512195125,-0.20731707317073172,-0.21544715447154472,-0.1991869918699187,-0.21138211382113822,-0.21544715447154472,-0.23170731707317072,-0.21544715447154472,-0.21138211382113822,-0.22357723577235775,-0.22357723577235775,-0.21138211382113822,-0.22357723577235775,-0.21138211382113822,-0.1991869918699187,-0.18292682926829268,-0.19105691056910568,-0.1869918699186992,-0.17886178861788618,-0.13414634146341464,-0.13008130081300814,-0.13008130081300814,-0.12601626016260162,-0.13008130081300814,-0.15447154471544716,-0.16666666666666666,-0.18292682926829268,-0.17479674796747968,-0.1951219512195122,-0.1951219512195122,-0.19105691056910568,-0.1869918699186992,-0.17073170731707316,-0.17886178861788618,-0.1626016260162602,-0.14227642276422764,-0.15040650406504066,-0.15447154471544716,-0.1626016260162602,-0.16666666666666666,-0.2032520325203252,-0.21951219512195125,-0.24390243902439024,-0.24796747967479674,-0.23577235772357721,-0.24796747967479674,-0.24796747967479674,-0.23983739837398374,-0.23170731707317072,-0.2723577235772358,-0.23983739837398374,-0.25609756097560976,-0.25609756097560976,-0.25203252032520324,-0.2601626016260163,-0.23983739837398374,-0.24390243902439024,-0.25609756097560976,-0.25609756097560976,-0.25203252032520324,-0.24390243902439024,-0.25609756097560976,-0.25203252032520324,-0.24796747967479674,-0.26422764227642276,-0.25203252032520324,-0.26422764227642276,-0.23577235772357721,-0.23983739837398374,-0.23577235772357721,-0.21951219512195125,-0.17886178861788618,-0.12195121951219512,-0.08943089430894309,-0.0934959349593496,-0.14634146341463414,-0.17073170731707316,-0.22764227642276424,-0.3414634146341463,-0.4552845528455285,-0.5447154471544716,-0.6463414634146342,-0.7073170731707317,-0.7276422764227642,-0.7642276422764227,-0.8048780487804879,-0.8455284552845529,-0.8089430894308943,-0.7601626016260163,-0.7073170731707317,-0.6869918699186992,-0.6382113821138212,-0.6300813008130082,-0.6422764227642277,-0.6260162601626017,-0.6097560975609756,-0.5650406504065041,-0.5365853658536586,-0.4959349593495935,-0.47560975609756095,N
-0.17073170731707316,-0.22764227642276424,-0.3414634146341463,-0.4552845528455285,-0.5447154471544716,-0.6463414634146342,-0.7073170731707317,-0.7276422764227642,-0.7642276422764227,-0.8048780487804879,-0.8455284552845529,-0.8089430894308943,-0.7601626016260163,-0.7073170731707317,-0.6869918699186992,-0.6382113821138212,-0.6300813008130082,-0.6422764227642277,-0.6260162601626017,-0.6097560975609756,-0.5650406504065041,-0.5365853658536586,-0.4959349593495935,-0.47560975609756095,-0.4552845528455285,-0.451219512195122,-0.42276422764227645,-0.36585365853658536,-0.3170731707317073,-0.2764227642276423,-0.21544715447154472,-0.1626016260162602,-0.14634146341463414,-0.12195121951219512,-0.1016260162601626,-0.08536585365853658,-0.0813008130081301,-0.07723577235772358,-0.06910569105691057,-0.04878048780487805,-0.044715447154471545,-0.06097560975609756,-0.032520325203252036,-0.032520325203252036,-0.052845528455284556,-0.02845528455284553,-0.016260162601626018,-0.02845528455284553,-0.020325203252032523,-0.016260162601626018,-0.020325203252032523,0.0,0.0040650406504065045,0.0040650406504065045,0.0040650406504065045,0.012195121951219513,0.0,0.008130081300813009,0.012195121951219513,0.04065040650406505,0.052845528455284556,0.036585365853658534,0.036585365853658534,0.044715447154471545,0.04878048780487805,0.036585365853658534,0.04878048780487805,0.04878048780487805,0.052845528455284556,0.044715447154471545,0.036585365853658534,0.04878048780487805,0.04878048780487805,0.052845528455284556,0.036585365853658534,0.052845528455284556,0.052845528455284556,0.044715447154471545,0.044715447154471545,0.04065040650406505,0.032520325203252036,0.04065040650406505,0.032520325203252036,0.032520325203252036,0.016260162601626018,0.02845528455284553,0.0040650406504065045,0.008130081300813009,-0.0040650406504065045,-0.008130081300813009,-0.02845528455284553,-0.016260162601626018,-0.036585365853658534,-0.04878048780487805,-0.06097560975609756,-0.05691056910569106,-0.0813008130081301,-0.08536585365853658,-0.0934959349593496,-0.10569105691056911,-0.10569105691056911,-0.10975609756097562,-0.11382113821138212,-0.12195121951219512,-0.13008130081300814,-0.15040650406504066,-0.15040650406504066,-0.15853658536585366,-0.1626016260162602,-0.17886178861788618,-0.17073170731707316,-0.18292682926829268,-0.1951219512195122,-0.1951219512195122,-0.1991869918699187,-0.21138211382113822,-0.19105691056910568,-0.20731707317073172,-0.21138211382113822,-0.21544715447154472,-0.21951219512195125,-0.21951219512195125,-0.22357723577235775,-0.21951219512195125,-0.21138211382113822,-0.20731707317073172,-0.21544715447154472,-0.21138211382113822,-0.20731707317073172,-0.2032520325203252,-0.20731707317073172,-0.2032520325203252,-0.21138211382113822,-0.2032520325203252,-0.1951219512195122,-0.1869918699186992,-0.1951219512195122,-0.20731707317073172,-0.19105691056910568,-0.2032520325203252,-0.2032520325203252,-0.1991869918699187,-0.1991869918699187,-0.20731707317073172,-0.21544715447154472,-0.24390243902439024,-0.2764227642276423,-0.3048780487804878,-0.35772357723577236,-0.4105691056910569,-0.47560975609756095,-0.5040650406504065,-0.5365853658536586,-0.5325203252032521,-0.5121951219512195,-0.4959349593495935,-0.4593495934959349,-0.42276422764227645,-0.35365853658536583,-0.2723577235772358,-0.24390243902439024,-0.2032520325203252,-0.24796747967479674,-0.36585365853658536,-0.4593495934959349,-0.4959349593495935,-0.5,-0.5325203252032521,-0.5447154471544716,-0.5772357723577236,-0.5894308943089431,-0.5691056910569106,-0.524390243902439,-0.5040650406504065,-0.5203252032520326,-0.5650406504065041,-0.5569105691056911,-0.4878048780487805,-0.43089430894308944,-0.3902439024390244,-0.3902439024390244,-0.3861788617886179,-0.4024390243902439,-0.3943089430894309,-0.3943089430894309,-0.3699186991869919,-0.3414634146341463,-0.3048780487804878,-0.25203252032520324,-0.20731707317073172,-0.13821138211382114,-0.10975609756097562,-0.10569105691056911,-0.05691056910569106,-0.06504065040650407,-0.05691056910569106,-0.052845528455284556,-0.05691056910569106,-0.06097560975609756,-0.052845528455284556,-0.05691056910569106,-0.052845528455284556,-0.05691056910569106,-0.036585365853658534,-0.04065040650406505,-0.04878048780487805,-0.036585365853658534,-0.044715447154471545,-0.052845528455284556,-0.07723577235772358,-0.044715447154471545,-0.052845528455284556,-0.05691056910569106,-0.044715447154471545,-0.032520325203252036,-0.032520325203252036,-0.02845528455284553,-0.0040650406504065045,-0.012195121951219513,0.0,0.012195121951219513,0.0040650406504065045,0.0,-0.012195121951219513,-0.02845528455284553,-0.04065040650406505,-0.044715447154471545,-0.04065040650406505,-0.024390243902439025,-0.024390243902439025,-0.012195121951219513,0.008130081300813009,0.04065040650406505,0.036585365853658534,0.04065040650406505,0.036585365853658534,0.016260162601626018,0.02845528455284553,0.0,0.0,0.0040650406504065045,-0.016260162601626018,0.0,-0.0040650406504065045,0.0,0.012195121951219513,0.0040650406504065045,0.020325203252032523,0.020325203252032523,0.012195121951219513,0.012195121951219513,0.024390243902439025,0.0040650406504065045,0.0,0.0,-0.0040650406504065045,0.008130081300813009,-0.016260162601626018,-0.012195121951219513,-0.016260162601626018,-0.020325203252032523,-0.02845528455284553,-0.052845528455284556,-0.05691056910569106,-0.05691056910569106,-0.06504065040650407,-0.07723577235772358,-0.0975609756097561,-0.10569105691056911,-0.11382113821138212,-0.12601626016260162,-0.11788617886178861,-0.14634146341463414,-0.14634146341463414,-0.1626016260162602,-0.17073170731707316,-0.17479674796747968,-0.18292682926829268,-0.18292682926829268,-0.19105691056910568,-0.19105691056910568,-0.2032520325203252,-0.2032520325203252,-0.21544715447154472,-0.20731707317073172,-0.22764227642276424,-0.21138211382113822,-0.22764227642276424,-0.22764227642276424,-0.22764227642276424,-0.23170731707317072,-0.2601626016260163,-0.23577235772357721,-0.25203252032520324,-0.24390243902439024,-0.25203252032520324,-0.2601626016260163,-0.24390243902439024,-0.2601626016260163,-0.26422764227642276,N
-0.2032520325203252,-0.24796747967479674,-0.36585365853658536,-0.4593495934959349,-0.4959349593495935,-0.5,-0.5325203252032521,-0.5447154471544716,-0.5772357723577236,-0.5894308943089431,-0.5691056910569106,-0.524390243902439,-0.5040650406504065,-0.5203252032520326,-0.5650406504065041,-0.5569105691056911,-0.4878048780487805,-0.43089430894308944,-0.3902439024390244,-0.3902439024390244,-0.3861788617886179,-0.4024390243902439,-0.3943089430894309,-0.3943089430894309,-0.3699186991869919,-0.3414634146341463,-0.3048780487804878,-0.25203252032520324,-0.20731707317073172,-0.13821138211382114,-0.10975609756097562,-0.10569105691056911,-0.05691056910569106,-0.06504065040650407,-0.05691056910569106,-0.052845528455284556,-0.05691056910569106,-0.06097560975609756,-0.052845528455284556,-0.05691056910569106,-0.052845528455284556,-0.05691056910569106,-0.036585365853658534,-0.04065040650406505,-0.04878048780487805,-0.036585365853658534,-0.044715447154471545,-0.052845528455284556,-0.07723577235772358,-0.044715447154471545,-0.052845528455284556,-0.05691056910569106,-0.044715447154471545,-0.032520325203252036,-0.032520325203252036,-0.02845528455284553,-0.0040650406504065045,-0.012195121951219513,0.0,0.012195121951219513,0.0040650406504065045,0.0,-0.012195121951219513,-0.02845528455284553,-0.04065040650406505,-0.044715447154471545,-0.04065040650406505,-0.024390243902439025,-0.024390243902439025,-0.012195121951219513,0.008130081300813009,0.04065040650406505,0.036585365853658534,0.04065040650406505,0.036585365853658534,0.016260162601626018,0.02845528455284553,0.0,0.0,0.0040650406504065045,-0.016260162601626018,0.0,-0.0040650406504065045,0.0,0.012195121951219513,0.0040650406504065045,0.020325203252032523,0.020325203252032523,0.012195121951219513,0.012195121951219513,0.024390243902439025,0.0040650406504065045,0.0,0.0,-0.0040650406504065045,0.008130081300813009,-0.016260162601626018,-0.012195121951219513,-0.016260162601626018,-0.020325203252032523,-0.02845528455284553,-0.052845528455284556,-0.05691056910569106,-0.05691056910569106,-0.06504065040650407,-0.07723577235772358,-0.0975609756097561,-0.10569105691056911,-0.11382113821138212,-0.12601626016260162,-0.11788617886178861,-0.14634146341463414,-0.14634146341463414,-0.1626016260162602,-0.17073170731707316,-0.17479674796747968,-0.18292682926829268,-0.18292682926829268,-0.19105691056910568,-0.19105691056910568,-0.2032520325203252,-0.2032520325203252,-0.21544715447154472,-0.20731707317073172,-0.22764227642276424,-0.21138211382113822,-0.22764227642276424,-0.22764227642276424,-0.22764227642276424,-0.23170731707317072,-0.2601626016260163,-0.23577235772357721,-0.25203252032520324,-0.24390243902439024,-0.25203252032520324,-0.2601626016260163,-0.24390243902439024,-0.2601626016260163,-0.26422764227642276,-0.2601626016260163,-0.2601626016260163,-0.2601626016260163,-0.2723577235772358,-0.2682926829268293,-0.2682926829268293,-0.2723577235772358,-0.2764227642276423,-0.2764227642276423,-0.25609756097560976,-0.2723577235772358,-0.2764227642276423,-0.2845528455284553,-0.2682926829268293,-0.2601626016260163,-0.2682926829268293,-0.2845528455284553,-0.2723577235772358,-0.26422764227642276,-0.26422764227642276,-0.2723577235772358,-0.2601626016260163,-0.2601626016260163,-0.2723577235772358,-0.2764227642276423,-0.2723577235772358,-0.2926829268292683,-0.26422764227642276,-0.2764227642276423,-0.26422764227642276,-0.26422764227642276,-0.2601626016260163,-0.2682926829268293,-0.26422764227642276,-0.2682926829268293,-0.2601626016260163,-0.2601626016260163,-0.25203252032520324,-0.2601626016260163,-0.25609756097560976,-0.2723577235772358,-0.2764227642276423,-0.26422764227642276,-0.2723577235772358,-0.2601626016260163,-0.28048780487804875,-0.2601626016260163,-0.2764227642276423,-0.26422764227642276,-0.2764227642276423,-0.2764227642276423,-0.2723577235772358,-0.2682926829268293,-0.2764227642276423,-0.2682926829268293,-0.2764227642276423,-0.25609756097560976,-0.2682926829268293,-0.2723577235772358,-0.2682926829268293,-0.28048780487804875,-0.2682926829268293,-0.25609756097560976,-0.2682926829268293,-0.28048780487804875,-0.28048780487804875,-0.2886178861788618,-0.2845528455284553,-0.2682926829268293,-0.2723577235772358,-0.2764227642276423,-0.2682926829268293,-0.2764227642276423,-0.2723577235772358,-0.2682926829268293,-0.2601626016260163,-0.26422764227642276,-0.2682926829268293,-0.28048780487804875,-0.2682926829268293,-0.25609756097560976,-0.2764227642276423,-0.26422764227642276,-0.2601626016260163,-0.25609756097560976,-0.2723577235772358,-0.28048780487804875,-0.2601626016260163,-0.26422764227642276,-0.28048780487804875,-0.25609756097560976,-0.2682926829268293,-0.25609756097560976,-0.2601626016260163,-0.2601626016260163,-0.2682926829268293,-0.2601626016260163,-0.2601626016260163,-0.25203252032520324,-0.25609756097560976,-0.2601626016260163,-0.24796747967479674,-0.26422764227642276,-0.25203252032520324,-0.2601626016260163,-0.25609756097560976,-0.25203252032520324,-0.25203252032520324,-0.2601626016260163,-0.24390243902439024,-0.2601626016260163,-0.2764227642276423,-0.25609756097560976,-0.26422764227642276,-0.25203252032520324,-0.25609756097560976,-0.2601626016260163,-0.25203252032520324,-0.25609756097560976,-0.2601626016260163,-0.25609756097560976,-0.2601626016260163,-0.2601626016260163,-0.25609756097560976,-0.25203252032520324,-0.25203252032520324,-0.24796747967479674,-0.23170731707317072,-0.23577235772357721,-0.23577235772357721,-0.24390243902439024,-0.25609756097560976,-0.24390243902439024,-0.24796747967479674,-0.24796747967479674,-0.24796747967479674,-0.23983739837398374,-0.24796747967479674,-0.23983739837398374,-0.23983739837398374,-0.23983739837398374,-0.22357723577235775,-0.21951219512195125,-0.22764227642276424,-0.23983739837398374,-0.23170731707317072,-0.22764227642276424,-0.23983739837398374,-0.24390243902439024,-0.23983739837398374,-0.23577235772357721,-0.22764227642276424,-0.22764227642276424,-0.23983739837398374,-0.23983739837398374,-0.23983739837398374,-0.24796747967479674,-0.23577235772357721,-0.21544715447154472,-0.23983739837398374,-0.22357723577235775,N
