0.08108108108108107,0.08108108108108107,0.1036036036036036,0.08108108108108107,0.07657657657657657,0.08108108108108107,0.08558558558558559,0.09459459459459459,0.08558558558558559,0.09909909909909909,0.09909909909909909,0.09459459459459459,0.09459459459459459,0.09909909909909909,0.08558558558558559,0.08108108108108107,0.07657657657657657,0.07657657657657657,0.07207207207207207,0.08108108108108107,0.07657657657657657,0.07207207207207207,0.08108108108108107,0.08108108108108107,0.06756756756756756,0.06306306306306306,0.06756756756756756,0.05855855855855856,0.05855855855855856,0.05405405405405405,0.05855855855855856,0.05855855855855856,0.06756756756756756,0.06756756756756756,0.06306306306306306,0.05405405405405405,0.07657657657657657,0.06306306306306306,0.06756756756756756,0.05405405405405405,0.04954954954954954,0.04954954954954954,0.05855855855855856,0.06756756756756756,0.07657657657657657,0.07207207207207207,0.04954954954954954,0.07207207207207207,0.08558558558558559,0.07657657657657657,0.09009009009009009,0.09009009009009009,0.08108108108108107,0.09009009009009009,0.08558558558558559,0.1036036036036036,0.09909909909909909,0.09909909909909909,0.08108108108108107,0.08108108108108107,0.08558558558558559,0.07657657657657657,0.07207207207207207,0.06756756756756756,0.07657657657657657,0.07657657657657657,0.07207207207207207,0.06306306306306306,0.07207207207207207,0.04504504504504504,0.04954954954954954,0.06756756756756756,0.05855855855855856,0.06756756756756756,0.07657657657657657,0.09459459459459459,0.14414414414414414,0.2072072072072072,0.31531531531531526,0.33783783783783783,0.35585585585585583,0.23873873873873874,-0.05405405405405405,-0.37387387387387383,-0.6666666666666666,-0.8333333333333333,-0.8333333333333333,-0.7072072072072072,-0.545045045045045,-0.4189189189189189,-0.24774774774774774,-0.07657657657657657,-0.009009009009009009,0.013513513513513513,0.040540540540540536,0.06756756756756756,0.1081081081081081,0.13513513513513511,0.14414414414414414,0.15315315315315314,0.16666666666666666,0.17567567567567566,0.18018018018018017,0.17117117117117117,0.16666666666666666,0.18018018018018017,0.18018018018018017,0.18018018018018017,0.19819819819819817,0.17567567567567566,0.18018018018018017,0.2027027027027027,0.19369369369369369,0.2072072072072072,0.2027027027027027,0.2117117117117117,0.24774774774774774,0.23873873873873874,0.24774774774774774,0.24774774774774774,0.27027027027027023,0.27477477477477474,0.28378378378378377,0.2927927927927928,0.2882882882882883,0.3063063063063063,0.3063063063063063,0.3198198198198198,0.3333333333333333,0.3468468468468468,0.36036036036036034,0.37387387387387383,0.39189189189189183,0.39189189189189183,0.39189189189189183,0.37837837837837834,0.38738738738738737,0.38738738738738737,0.4099099099099099,0.37837837837837834,0.39639639639639634,0.37837837837837834,0.3693693693693693,0.3513513513513513,0.33783783783783783,0.3243243243243243,0.3288288288288288,0.29729729729729726,0.2927927927927928,0.27027027027027023,0.24324324324324323,0.2162162162162162,0.2207207207207207,0.19819819819819817,0.16216216216216214,0.15315315315315314,0.14414414414414414,0.1306306306306306,0.12612612612612611,0.1126126126126126,0.09459459459459459,0.09909909909909909,0.1126126126126126,0.08558558558558559,0.09459459459459459,0.1036036036036036,0.09909909909909909,0.08108108108108107,0.08108108108108107,0.1081081081081081,0.09459459459459459,0.1036036036036036,0.09909909909909909,0.09459459459459459,0.09459459459459459,0.09909909909909909,0.1036036036036036,0.08558558558558559,0.09909909909909909,0.09909909909909909,0.09009009009009009,0.09009009009009009,0.09009009009009009,0.1036036036036036,0.09909909909909909,0.1081081081081081,0.1081081081081081,0.1081081081081081,0.09909909909909909,0.09009009009009009,0.11711711711711711,0.09909909909909909,0.09909909909909909,0.1036036036036036,0.09909909909909909,0.08558558558558559,0.06756756756756756,0.08108108108108107,0.1036036036036036,0.07657657657657657,0.08108108108108107,0.08108108108108107,0.08108108108108107,0.08108108108108107,0.09009009009009009,0.06756756756756756,0.09009009009009009,0.09009009009009009,0.06756756756756756,0.07657657657657657,0.07207207207207207,0.07657657657657657,0.04504504504504504,0.07207207207207207,0.07207207207207207,0.06306306306306306,0.06306306306306306,0.06756756756756756,0.0,0.0,0.0,0.0,0.0,0.0,0.0,0.0,0.0,0.0,0.0,0.0,0.0,0.0,0.0,0.0,0.0,0.0,0.0,0.0,0.0,0.0,0.0,0.0,0.0,0.0,0.0,0.0,0.0,0.0,0.0,0.0,0.0,0.0,0.0,0.0,0.0,0.0,0.0,0.0,0.0,0.0,0.0,0.0,0.0,0.0,0.0,0.0,0.0,0.0,0.0,0.0,0.0,0.0,0.0,0.0,0.0,0.0,0.0,0.0,0.0,0.0,0.0,0.0,0.0,0.0,0.0,0.0,0.0,0.0,0.0,0.0,0.0,0.0,0.0,0.0,0.0,0.0,0.0,0.0,0.0,0.0,N
0.06756756756756756,0.07657657657657657,0.09459459459459459,0.14414414414414414,0.2072072072072072,0.31531531531531526,0.33783783783783783,0.35585585585585583,0.23873873873873874,-0.05405405405405405,-0.37387387387387383,-0.6666666666666666,-0.8333333333333333,-0.8333333333333333,-0.7072072072072072,-0.545045045045045,-0.4189189189189189,-0.24774774774774774,-0.07657657657657657,-0.009009009009009009,0.013513513513513513,0.040540540540540536,0.06756756756756756,0.1081081081081081,0.13513513513513511,0.14414414414414414,0.15315315315315314,0.16666666666666666,0.17567567567567566,0.18018018018018017,0.17117117117117117,0.16666666666666666,0.18018018018018017,0.18018018018018017,0.18018018018018017,0.19819819819819817,0.17567567567567566,0.18018018018018017,0.2027027027027027,0.19369369369369369,0.2072072072072072,0.2027027027027027,0.2117117117117117,0.24774774774774774,0.23873873873873874,0.24774774774774774,0.24774774774774774,0.27027027027027023,0.27477477477477474,0.28378378378378377,0.2927927927927928,0.2882882882882883,0.3063063063063063,0.3063063063063063,0.3198198198198198,0.3333333333333333,0.3468468468468468,0.36036036036036034,0.37387387387387383,0.39189189189189183,0.39189189189189183,0.39189189189189183,0.37837837837837834,0.38738738738738737,0.38738738738738737,0.4099099099099099,0.37837837837837834,0.39639639639639634,0.37837837837837834,0.3693693693693693,0.3513513513513513,0.33783783783783783,0.3243243243243243,0.3288288288288288,0.29729729729729726,0.2927927927927928,0.27027027027027023,0.24324324324324323,0.2162162162162162,0.2207207207207207,0.19819819819819817,0.16216216216216214,0.15315315315315314,0.14414414414414414,0.1306306306306306,0.12612612612612611,0.1126126126126126,0.09459459459459459,0.09909909909909909,0.1126126126126126,0.08558558558558559,0.09459459459459459,0.1036036036036036,0.09909909909909909,0.08108108108108107,0.08108108108108107,0.1081081081081081,0.09459459459459459,0.1036036036036036,0.09909909909909909,0.09459459459459459,0.09459459459459459,0.09909909909909909,0.1036036036036036,0.08558558558558559,0.09909909909909909,0.09909909909909909,0.09009009009009009,0.09009009009009009,0.09009009009009009,0.1036036036036036,0.09909909909909909,0.1081081081081081,0.1081081081081081,0.1081081081081081,0.09909909909909909,0.09009009009009009,0.11711711711711711,0.09909909909909909,0.09909909909909909,0.1036036036036036,0.09909909909909909,0.08558558558558559,0.06756756756756756,0.08108108108108107,0.1036036036036036,0.07657657657657657,0.08108108108108107,0.08108108108108107,0.08108108108108107,0.08108108108108107,0.09009009009009009,0.06756756756756756,0.09009009009009009,0.09009009009009009,0.06756756756756756,0.07657657657657657,0.07207207207207207,0.07657657657657657,0.04504504504504504,0.07207207207207207,0.07207207207207207,0.06306306306306306,0.06306306306306306,0.06756756756756756,0.06756756756756756,0.06306306306306306,0.06756756756756756,0.07657657657657657,0.06306306306306306,0.06756756756756756,0.06306306306306306,0.08558558558558559,0.07207207207207207,0.06756756756756756,0.07657657657657657,0.06756756756756756,0.06756756756756756,0.09459459459459459,0.07657657657657657,0.06306306306306306,0.06756756756756756,0.08108108108108107,0.08558558558558559,0.08108108108108107,0.08108108108108107,0.1036036036036036,0.08108108108108107,0.09459459459459459,0.08108108108108107,0.06756756756756756,0.06306306306306306,0.06306306306306306,0.06306306306306306,0.07657657657657657,0.06306306306306306,0.06756756756756756,0.05405405405405405,0.04954954954954954,0.05405405405405405,0.040540540540540536,0.04954954954954954,0.04504504504504504,0.04954954954954954,0.04954954954954954,0.040540540540540536,0.04954954954954954,0.05855855855855856,0.06306306306306306,0.04954954954954954,0.05855855855855856,0.06306306306306306,0.06306306306306306,0.06306306306306306,0.04504504504504504,0.05405405405405405,0.04504504504504504,0.04954954954954954,0.05405405405405405,0.036036036036036036,0.040540540540540536,0.06306306306306306,0.06306306306306306,0.09909909909909909,0.15315315315315314,0.24324324324324323,0.33783783783783783,0.39189189189189183,0.3693693693693693,0.2207207207207207,-0.02252252252252252,-0.3243243243243243,-0.6261261261261261,-0.8558558558558558,-0.8648648648648648,-0.6936936936936936,-0.518018018018018,-0.3513513513513513,0.0,0.0,0.0,0.0,0.0,0.0,0.0,0.0,0.0,0.0,0.0,0.0,0.0,0.0,0.0,0.0,0.0,0.0,0.0,0.0,0.0,0.0,0.0,0.0,0.0,0.0,0.0,0.0,0.0,0.0,0.0,0.0,0.0,0.0,0.0,0.0,0.0,0.0,0.0,0.0,0.0,0.0,0.0,0.0,0.0,0.0,0.0,0.0,0.0,0.0,0.0,0.0,0.0,0.0,0.0,0.0,0.0,0.0,0.0,0.0,0.0,0.0,0.0,0.0,0.0,0.0,0.0,0.0,0.0,0.0,0.0,0.0,0.0,0.0,0.0,0.0,0.0,0.0,0.0,0.0,0.0,0.0,N
0.3693693693693693,0.2207207207207207,-0.02252252252252252,-0.3243243243243243,-0.6261261261261261,-0.8558558558558558,-0.8648648648648648,-0.6936936936936936,-0.518018018018018,-0.3513513513513513,-0.16216216216216214,-0.04954954954954954,-0.03153153153153153,-0.0045045045045045045,0.03153153153153153,0.04504504504504504,0.07657657657657657,0.09909909909909909,0.12612612612612611,0.11711711711711711,0.1306306306306306,0.12162162162162161,0.12612612612612611,0.11711711711711711,0.14414414414414414,0.12612612612612611,0.12162162162162161,0.13513513513513511,0.14414414414414414,0.14414414414414414,0.13513513513513511,0.14414414414414414,0.15765765765765763,0.16666666666666666,0.16666666666666666,0.18018018018018017,0.18468468468468466,0.18468468468468466,0.2027027027027027,0.2072072072072072,0.2207207207207207,0.2117117117117117,0.23423423423423423,0.23873873873873874,0.24324324324324323,0.25225225225225223,0.24774774774774774,0.27027027027027023,0.2882882882882883,0.28378378378378377,0.3018018018018018,0.2882882882882883,0.31081081081081074,0.3018018018018018,0.3198198198198198,0.3243243243243243,0.3063063063063063,0.3063063063063063,0.31081081081081074,0.31081081081081074,0.27477477477477474,0.27477477477477474,0.2567567567567567,0.22972972972972971,0.23423423423423423,0.2117117117117117,0.2027027027027027,0.16666666666666666,0.14864864864864863,0.14414414414414414,0.1081081081081081,0.1036036036036036,0.09909909909909909,0.07657657657657657,0.07657657657657657,0.06756756756756756,0.07207207207207207,0.06306306306306306,0.07207207207207207,0.04954954954954954,0.04954954954954954,0.04504504504504504,0.06306306306306306,0.04954954954954954,0.04954954954954954,0.05405405405405405,0.04954954954954954,0.040540540540540536,0.04954954954954954,0.05405405405405405,0.05855855855855856,0.04954954954954954,0.06306306306306306,0.05405405405405405,0.08108108108108107,0.06756756756756756,0.07207207207207207,0.06756756756756756,0.06306306306306306,0.07207207207207207,0.04504504504504504,0.04504504504504504,0.06756756756756756,0.06756756756756756,0.06756756756756756,0.06756756756756756,0.07657657657657657,0.06756756756756756,0.06756756756756756,0.06756756756756756,0.06306306306306306,0.06756756756756756,0.07657657657657657,0.06756756756756756,0.05855855855855856,0.05405405405405405,0.07207207207207207,0.04954954954954954,0.06756756756756756,0.07657657657657657,0.05405405405405405,0.05855855855855856,0.06306306306306306,0.05405405405405405,0.06306306306306306,0.06306306306306306,0.07207207207207207,0.06306306306306306,0.05855855855855856,0.06756756756756756,0.06756756756756756,0.05405405405405405,0.07207207207207207,0.07207207207207207,0.07207207207207207,0.05855855855855856,0.08108108108108107,0.07657657657657657,0.08108108108108107,0.08558558558558559,0.08108108108108107,0.08108108108108107,0.08108108108108107,0.09459459459459459,0.09459459459459459,0.06756756756756756,0.06306306306306306,0.08558558558558559,0.06306306306306306,0.06306306306306306,0.06306306306306306,0.04504504504504504,0.05855855855855856,0.04954954954954954,0.05855855855855856,0.05855855855855856,0.040540540540540536,0.040540540540540536,0.03153153153153153,0.03153153153153153,0.03153153153153153,0.04954954954954954,0.036036036036036036,0.03153153153153153,0.04504504504504504,0.04504504504504504,0.03153153153153153,0.04954954954954954,0.03153153153153153,0.027027027027027025,0.040540540540540536,0.04954954954954954,0.036036036036036036,0.036036036036036036,0.036036036036036036,0.04504504504504504,0.03153153153153153,0.05405405405405405,0.05405405405405405,0.04954954954954954,0.07207207207207207,0.12612612612612611,0.2027027027027027,0.29729729729729726,0.3693693693693693,0.39639639639639634,0.3018018018018018,0.09909909909909909,-0.2117117117117117,-0.536036036036036,-0.7972972972972973,-0.8963963963963963,-0.7792792792792792,-0.5900900900900901,-0.4054054054054054,-0.22972972972972971,-0.09009009009009009,-0.027027027027027025,-0.009009009009009009,0.02252252252252252,0.027027027027027025,0.07207207207207207,0.09009009009009009,0.1036036036036036,0.11711711711711711,0.1306306306306306,0.12162162162162161,0.12612612612612611,0.1081081081081081,0.13513513513513511,0.1306306306306306,0.13963963963963963,0.13963963963963963,0.15315315315315314,0.15315315315315314,0.14864864864864863,0.15765765765765763,0.16216216216216214,0.0,0.0,0.0,0.0,0.0,0.0,0.0,0.0,0.0,0.0,0.0,0.0,0.0,0.0,0.0,0.0,0.0,0.0,0.0,0.0,0.0,0.0,0.0,0.0,0.0,0.0,0.0,0.0,0.0,0.0,0.0,0.0,0.0,0.0,0.0,0.0,0.0,0.0,0.0,0.0,0.0,0.0,0.0,0.0,0.0,0.0,0.0,0.0,0.0,0.0,0.0,0.0,0.0,0.0,0.0,0.0,0.0,0.0,0.0,0.0,0.0,0.0,0.0,0.0,0.0,0.0,0.0,0.0,0.0,0.0,0.0,0.0,0.0,0.0,0.0,0.0,0.0,0.0,0.0,0.0,0.0,0.0,N
0.3018018018018018,0.09909909909909909,-0.2117117117117117,-0.536036036036036,-0.7972972972972973,-0.8963963963963963,-0.7792792792792792,-0.5900900900900901,-0.4054054054054054,-0.22972972972972971,-0.09009009009009009,-0.027027027027027025,-0.009009009009009009,0.02252252252252252,0.027027027027027025,0.07207207207207207,0.09009009009009009,0.1036036036036036,0.11711711711711711,0.1306306306306306,0.12162162162162161,0.12612612612612611,0.1081081081081081,0.13513513513513511,0.1306306306306306,0.13963963963963963,0.13963963963963963,0.15315315315315314,0.15315315315315314,0.14864864864864863,0.15765765765765763,0.16216216216216214,0.17567567567567566,0.16666666666666666,0.16216216216216214,0.18468468468468466,0.18468468468468466,0.18918918918918917,0.19819819819819817,0.2072072072072072,0.2117117117117117,0.2117117117117117,0.23873873873873874,0.23423423423423423,0.24324324324324323,0.2657657657657657,0.27027027027027023,0.3018018018018018,0.2927927927927928,0.31531531531531526,0.3018018018018018,0.2882882882882883,0.31081081081081074,0.2927927927927928,0.29729729729729726,0.29729729729729726,0.28378378378378377,0.28378378378378377,0.27027027027027023,0.28378378378378377,0.2657657657657657,0.2567567567567567,0.24774774774774774,0.24324324324324323,0.2117117117117117,0.18918918918918917,0.17117117117117117,0.16216216216216214,0.14414414414414414,0.1036036036036036,0.07207207207207207,0.07657657657657657,0.07657657657657657,0.06306306306306306,0.040540540540540536,0.036036036036036036,0.040540540540540536,0.02252252252252252,0.02252252252252252,0.036036036036036036,0.027027027027027025,0.027027027027027025,0.036036036036036036,0.036036036036036036,0.036036036036036036,0.040540540540540536,0.03153153153153153,0.04504504504504504,0.036036036036036036,0.040540540540540536,0.04504504504504504,0.03153153153153153,0.03153153153153153,0.04954954954954954,0.036036036036036036,0.036036036036036036,0.040540540540540536,0.03153153153153153,0.040540540540540536,0.04954954954954954,0.04954954954954954,0.04504504504504504,0.04954954954954954,0.040540540540540536,0.05405405405405405,0.036036036036036036,0.04504504504504504,0.05405405405405405,0.040540540540540536,0.05405405405405405,0.040540540540540536,0.02252252252252252,0.027027027027027025,0.03153153153153153,0.03153153153153153,0.013513513513513513,0.02252252252252252,0.040540540540540536,0.040540540540540536,0.040540540540540536,0.036036036036036036,0.04954954954954954,0.036036036036036036,0.040540540540540536,0.04504504504504504,0.03153153153153153,0.036036036036036036,0.03153153153153153,0.036036036036036036,0.03153153153153153,0.018018018018018018,0.04504504504504504,0.03153153153153153,0.03153153153153153,0.040540540540540536,0.036036036036036036,0.04504504504504504,0.05855855855855856,0.05855855855855856,0.05405405405405405,0.04954954954954954,0.05405405405405405,0.040540540540540536,0.036036036036036036,0.04954954954954954,0.027027027027027025,0.02252252252252252,0.027027027027027025,0.018018018018018018,0.03153153153153153,0.018018018018018018,0.027027027027027025,0.013513513513513513,0.018018018018018018,0.027027027027027025,0.02252252252252252,0.027027027027027025,0.036036036036036036,0.027027027027027025,0.03153153153153153,0.02252252252252252,0.018018018018018018,0.009009009009009009,0.009009009009009009,0.018018018018018018,0.013513513513513513,0.013513513513513513,0.03153153153153153,0.027027027027027025,0.018018018018018018,0.02252252252252252,0.027027027027027025,0.02252252252252252,0.036036036036036036,0.040540540540540536,0.036036036036036036,0.04504504504504504,0.09459459459459459,0.17117117117117117,0.27927927927927926,0.34234234234234234,0.38738738738738737,0.31081081081081074,0.09459459459459459,-0.19819819819819817,-0.518018018018018,-0.7882882882882882,-0.8873873873873873,-0.7972972972972973,-0.6126126126126126,-0.4279279279279279,-0.2027027027027027,-0.08558558558558559,-0.04504504504504504,0.0,0.009009009009009009,0.03153153153153153,0.06756756756756756,0.09459459459459459,0.1081081081081081,0.12162162162162161,0.1126126126126126,0.12612612612612611,0.1126126126126126,0.12162162162162161,0.1306306306306306,0.1126126126126126,0.1306306306306306,0.13513513513513511,0.13513513513513511,0.13513513513513511,0.1306306306306306,0.14864864864864863,0.14414414414414414,0.15315315315315314,0.15765765765765763,0.16216216216216214,0.17117117117117117,0.0,0.0,0.0,0.0,0.0,0.0,0.0,0.0,0.0,0.0,0.0,0.0,0.0,0.0,0.0,0.0,0.0,0.0,0.0,0.0,0.0,0.0,0.0,0.0,0.0,0.0,0.0,0.0,0.0,0.0,0.0,0.0,0.0,0.0,0.0,0.0,0.0,0.0,0.0,0.0,0.0,0.0,0.0,0.0,0.0,0.0,0.0,0.0,0.0,0.0,0.0,0.0,0.0,0.0,0.0,0.0,0.0,0.0,0.0,0.0,0.0,0.0,0.0,0.0,0.0,0.0,0.0,0.0,0.0,0.0,0.0,0.0,0.0,0.0,0.0,0.0,0.0,0.0,0.0,0.0,0.0,0.0,N
0.31081081081081074,0.09459459459459459,-0.19819819819819817,-0.518018018018018,-0.7882882882882882,-0.8873873873873873,-0.7972972972972973,-0.6126126126126126,-0.4279279279279279,-0.2027027027027027,-0.08558558558558559,-0.04504504504504504,0.0,0.009009009009009009,0.03153153153153153,0.06756756756756756,0.09459459459459459,0.1081081081081081,0.12162162162162161,0.1126126126126126,0.12612612612612611,0.1126126126126126,0.12162162162162161,0.1306306306306306,0.1126126126126126,0.1306306306306306,0.13513513513513511,0.13513513513513511,0.13513513513513511,0.1306306306306306,0.14864864864864863,0.14414414414414414,0.15315315315315314,0.15765765765765763,0.16216216216216214,0.17117117117117117,0.18018018018018017,0.18918918918918917,0.18918918918918917,0.19819819819819817,0.2162162162162162,0.19819819819819817,0.2252252252252252,0.24774774774774774,0.2567567567567567,0.24774774774774774,0.2567567567567567,0.28378378378378377,0.3018018018018018,0.2927927927927928,0.3018018018018018,0.2927927927927928,0.3018018018018018,0.3018018018018018,0.2927927927927928,0.2882882882882883,0.29729729729729726,0.27927927927927926,0.27927927927927926,0.27027027027027023,0.25225225225225223,0.23423423423423423,0.2252252252252252,0.2162162162162162,0.2117117117117117,0.17567567567567566,0.15765765765765763,0.13963963963963963,0.12612612612612611,0.09909909909909909,0.09459459459459459,0.07657657657657657,0.07207207207207207,0.05405405405405405,0.04954954954954954,0.040540540540540536,0.036036036036036036,0.036036036036036036,0.03153153153153153,0.027027027027027025,0.036036036036036036,0.02252252252252252,0.03153153153153153,0.040540540540540536,0.05405405405405405,0.040540540540540536,0.040540540540540536,0.040540540540540536,0.04504504504504504,0.03153153153153153,0.040540540540540536,0.03153153153153153,0.03153153153153153,0.04504504504504504,0.04954954954954954,0.04954954954954954,0.04954954954954954,0.04504504504504504,0.05405405405405405,0.027027027027027025,0.05405405405405405,0.04504504504504504,0.05405405405405405,0.040540540540540536,0.06756756756756756,0.04504504504504504,0.036036036036036036,0.027027027027027025,0.03153153153153153,0.03153153153153153,0.036036036036036036,0.027027027027027025,0.040540540540540536,0.027027027027027025,0.027027027027027025,0.027027027027027025,0.027027027027027025,0.027027027027027025,0.02252252252252252,0.013513513513513513,0.02252252252252252,0.02252252252252252,0.036036036036036036,0.03153153153153153,0.018018018018018018,0.018018018018018018,0.036036036036036036,0.0045045045045045045,0.009009009009009009,0.009009009009009009,0.013513513513513513,0.009009009009009009,0.0045045045045045045,0.02252252252252252,0.027027027027027025,0.036036036036036036,0.03153153153153153,0.040540540540540536,0.05855855855855856,0.036036036036036036,0.02252252252252252,0.02252252252252252,0.027027027027027025,0.0,0.0045045045045045045,0.0045045045045045045,0.0,0.009009009009009009,0.0045045045045045045,0.0,-0.013513513513513513,-0.009009009009009009,-0.009009009009009009,-0.018018018018018018,0.0,-0.009009009009009009,-0.013513513513513513,-0.009009009009009009,-0.009009009009009009,-0.009009009009009009,-0.013513513513513513,-0.013513513513513513,0.0,0.0,-0.009009009009009009,0.0,-0.009009009009009009,0.009009009009009009,0.0,0.0,0.0,0.0,-0.009009009009009009,0.0,-0.0045045045045045045,0.03153153153153153,0.07207207207207207,0.15315315315315314,0.2567567567567567,0.36036036036036034,0.39189189189189183,0.3243243243243243,0.12612612612612611,-0.14864864864864863,-0.48648648648648646,-0.7657657657657657,-0.8783783783783783,-0.7882882882882882,-0.6081081081081081,-0.4189189189189189,-0.2117117117117117,-0.1081081081081081,-0.04954954954954954,-0.02252252252252252,0.0,0.018018018018018018,0.02252252252252252,0.05405405405405405,0.06306306306306306,0.08108108108108107,0.08108108108108107,0.07657657657657657,0.08108108108108107,0.09009009009009009,0.08108108108108107,0.08558558558558559,0.09009009009009009,0.07657657657657657,0.08558558558558559,0.09009009009009009,0.09909909909909909,0.12162162162162161,0.1126126126126126,0.11711711711711711,0.13513513513513511,0.12612612612612611,0.1306306306306306,0.15765765765765763,0.0,0.0,0.0,0.0,0.0,0.0,0.0,0.0,0.0,0.0,0.0,0.0,0.0,0.0,0.0,0.0,0.0,0.0,0.0,0.0,0.0,0.0,0.0,0.0,0.0,0.0,0.0,0.0,0.0,0.0,0.0,0.0,0.0,0.0,0.0,0.0,0.0,0.0,0.0,0.0,0.0,0.0,0.0,0.0,0.0,0.0,0.0,0.0,0.0,0.0,0.0,0.0,0.0,0.0,0.0,0.0,0.0,0.0,0.0,0.0,0.0,0.0,0.0,0.0,0.0,0.0,0.0,0.0,0.0,0.0,0.0,0.0,0.0,0.0,0.0,0.0,0.0,0.0,0.0,0.0,0.0,0.0,N
0.3243243243243243,0.12612612612612611,-0.14864864864864863,-0.48648648648648646,-0.7657657657657657,-0.8783783783783783,-0.7882882882882882,-0.6081081081081081,-0.4189189189189189,-0.2117117117117117,-0.1081081081081081,-0.04954954954954954,-0.02252252252252252,0.0,0.018018018018018018,0.02252252252252252,0.05405405405405405,0.06306306306306306,0.08108108108108107,0.08108108108108107,0.07657657657657657,0.08108108108108107,0.09009009009009009,0.08108108108108107,0.08558558558558559,0.09009009009009009,0.07657657657657657,0.08558558558558559,0.09009009009009009,0.09909909909909909,0.12162162162162161,0.1126126126126126,0.11711711711711711,0.13513513513513511,0.12612612612612611,0.1306306306306306,0.15765765765765763,0.14864864864864863,0.16216216216216214,0.17117117117117117,0.17567567567567566,0.17567567567567566,0.19819819819819817,0.2027027027027027,0.19819819819819817,0.2252252252252252,0.25225225225225223,0.24324324324324323,0.2567567567567567,0.29729729729729726,0.3063063063063063,0.31531531531531526,0.3288288288288288,0.3198198198198198,0.29729729729729726,0.28378378378378377,0.27927927927927926,0.25225225225225223,0.24324324324324323,0.24324324324324323,0.2207207207207207,0.22972972972972971,0.2027027027027027,0.19819819819819817,0.17117117117117117,0.14414414414414414,0.13513513513513511,0.1036036036036036,0.09459459459459459,0.08558558558558559,0.06756756756756756,0.06306306306306306,0.04954954954954954,0.036036036036036036,0.013513513513513513,0.03153153153153153,0.013513513513513513,0.036036036036036036,0.0045045045045045045,0.02252252252252252,0.02252252252252252,0.013513513513513513,0.013513513513513513,0.027027027027027025,0.0045045045045045045,0.036036036036036036,0.027027027027027025,0.02252252252252252,0.03153153153153153,0.03153153153153153,0.027027027027027025,0.027027027027027025,0.03153153153153153,0.03153153153153153,0.03153153153153153,0.040540540540540536,0.027027027027027025,0.03153153153153153,0.03153153153153153,0.040540540540540536,0.040540540540540536,0.04504504504504504,0.03153153153153153,0.04954954954954954,0.04504504504504504,0.05405405405405405,0.03153153153153153,0.04504504504504504,0.04504504504504504,0.04504504504504504,0.03153153153153153,0.027027027027027025,0.027027027027027025,0.02252252252252252,0.03153153153153153,0.018018018018018018,0.009009009009009009,0.02252252252252252,0.027027027027027025,0.02252252252252252,0.009009009009009009,0.013513513513513513,0.013513513513513513,0.013513513513513513,0.013513513513513513,0.02252252252252252,0.013513513513513513,0.0045045045045045045,0.009009009009009009,0.0,0.0045045045045045045,0.013513513513513513,0.018018018018018018,0.0045045045045045045,0.013513513513513513,0.0045045045045045045,0.009009009009009009,0.013513513513513513,0.0045045045045045045,0.013513513513513513,0.009009009009009009,0.02252252252252252,0.04504504504504504,0.009009009009009009,0.0045045045045045045,0.013513513513513513,0.0,0.0,0.009009009009009009,0.0045045045045045045,0.02252252252252252,0.0045045045045045045,0.013513513513513513,0.013513513513513513,0.013513513513513513,0.0045045045045045045,0.0,0.013513513513513513,0.018018018018018018,0.0045045045045045045,0.013513513513513513,0.009009009009009009,0.027027027027027025,0.009009009009009009,0.0045045045045045045,0.013513513513513513,0.0,0.013513513513513513,0.009009009009009009,0.0,0.009009009009009009,0.0045045045045045045,-0.0045045045045045045,0.0,0.013513513513513513,0.013513513513513513,0.013513513513513513,0.0045045045045045045,0.02252252252252252,0.009009009009009009,0.009009009009009009,0.013513513513513513,0.018018018018018018,0.0,0.009009009009009009,-0.009009009009009009,0.0045045045045045045,0.0045045045045045045,0.009009009009009009,0.013513513513513513,0.009009009009009009,0.0,0.0,0.0,0.0,0.009009009009009009,0.0,0.0,0.0045045045045045045,0.0,-0.0045045045045045045,0.0045045045045045045,0.0,-0.009009009009009009,-0.013513513513513513,-0.013513513513513513,-0.013513513513513513,-0.0045045045045045045,0.0,-0.013513513513513513,-0.0045045045045045045,-0.009009009009009009,-0.0045045045045045045,0.0,-0.0045045045045045045,0.0,0.009009009009009009,0.0,0.0,0.0,0.0,0.0,0.0,0.0,0.0,0.0,0.0,0.0,0.0,0.0,0.0,0.0,0.0,0.0,0.0,0.0,0.0,0.0,0.0,0.0,0.0,0.0,0.0,0.0,0.0,0.0,0.0,0.0,0.0,0.0,0.0,0.0,0.0,0.0,0.0,0.0,0.0,0.0,0.0,0.0,0.0,0.0,0.0,0.0,0.0,0.0,0.0,0.0,0.0,0.0,0.0,0.0,0.0,0.0,0.0,0.0,0.0,0.0,0.0,0.0,0.0,0.0,0.0,0.0,0.0,0.0,0.0,0.0,0.0,0.0,0.0,0.0,0.0,0.0,0.0,0.0,0.0,0.0,0.0,0.0,N
0.2567567567567567,0.08108108108108107,-0.19819819819819817,-0.5135135135135134,-0.7747747747747747,-0.8918918918918918,-0.8288288288288288,-0.6756756756756757,-0.5225225225225224,-0.37387387387387383,-0.19819819819819817,-0.08558558558558559,-0.05405405405405405,-0.036036036036036036,-0.0045045045045045045,0.03153153153153153,0.04954954954954954,0.05405405405405405,0.09009009009009009,0.09909909909909909,0.1036036036036036,0.08558558558558559,0.09459459459459459,0.1081081081081081,0.1126126126126126,0.1036036036036036,0.09459459459459459,0.1126126126126126,0.1081081081081081,0.1126126126126126,0.1126126126126126,0.12162162162162161,0.1126126126126126,0.13513513513513511,0.13963963963963963,0.15765765765765763,0.15765765765765763,0.17117117117117117,0.17567567567567566,0.2027027027027027,0.19369369369369369,0.19369369369369369,0.2117117117117117,0.2162162162162162,0.2252252252252252,0.24324324324324323,0.24774774774774774,0.24774774774774774,0.27027027027027023,0.29729729729729726,0.2927927927927928,0.2882882882882883,0.3198198198198198,0.3198198198198198,0.3243243243243243,0.3243243243243243,0.3198198198198198,0.3063063063063063,0.31081081081081074,0.29729729729729726,0.3063063063063063,0.31081081081081074,0.3018018018018018,0.28378378378378377,0.27027027027027023,0.2567567567567567,0.2252252252252252,0.2252252252252252,0.2027027027027027,0.17567567567567566,0.15765765765765763,0.1306306306306306,0.1126126126126126,0.12162162162162161,0.09909909909909909,0.07207207207207207,0.05855855855855856,0.05855855855855856,0.05405405405405405,0.036036036036036036,0.040540540540540536,0.027027027027027025,0.03153153153153153,0.013513513513513513,0.018018018018018018,0.018018018018018018,0.027027027027027025,0.013513513513513513,0.02252252252252252,0.013513513513513513,0.036036036036036036,0.013513513513513513,0.013513513513513513,0.027027027027027025,0.036036036036036036,0.03153153153153153,0.027027027027027025,0.027027027027027025,0.009009009009009009,0.02252252252252252,0.040540540540540536,0.02252252252252252,0.013513513513513513,0.018018018018018018,0.03153153153153153,0.013513513513513513,0.040540540540540536,0.027027027027027025,0.040540540540540536,0.03153153153153153,0.04954954954954954,0.036036036036036036,0.036036036036036036,0.040540540540540536,0.04504504504504504,0.027027027027027025,0.036036036036036036,0.02252252252252252,0.009009009009009009,0.013513513513513513,0.036036036036036036,0.027027027027027025,0.03153153153153153,0.036036036036036036,0.036036036036036036,0.027027027027027025,0.036036036036036036,0.02252252252252252,0.03153153153153153,0.02252252252252252,0.027027027027027025,0.02252252252252252,0.027027027027027025,0.027027027027027025,0.03153153153153153,0.009009009009009009,0.013513513513513513,0.018018018018018018,0.02252252252252252,-0.009009009009009009,0.02252252252252252,0.009009009009009009,0.018018018018018018,0.009009009009009009,0.013513513513513513,0.018018018018018018,0.009009009009009009,0.02252252252252252,0.013513513513513513,0.018018018018018018,0.013513513513513513,0.009009009009009009,0.018018018018018018,0.03153153153153153,0.03153153153153153,0.02252252252252252,0.013513513513513513,0.03153153153153153,0.02252252252252252,0.02252252252252252,0.02252252252252252,0.009009009009009009,0.0,0.0,0.0,-0.0045045045045045045,0.0,0.0045045045045045045,0.0,0.0045045045045045045,-0.0045045045045045045,-0.009009009009009009,-0.018018018018018018,-0.040540540540540536,-0.018018018018018018,-0.036036036036036036,-0.018018018018018018,-0.018018018018018018,-0.02252252252252252,-0.027027027027027025,-0.036036036036036036,-0.02252252252252252,-0.018018018018018018,-0.013513513513513513,-0.02252252252252252,-0.013513513513513513,-0.013513513513513513,-0.013513513513513513,-0.013513513513513513,-0.013513513513513513,0.0,-0.013513513513513513,-0.013513513513513513,-0.009009009009009009,0.009009009009009009,0.05855855855855856,0.15765765765765763,0.24324324324324323,0.3198198198198198,0.31531531531531526,0.2117117117117117,0.02252252252252252,-0.28378378378378377,-0.6081081081081081,-0.8468468468468467,-0.7657657657657657,-0.5765765765765766,-0.39639639639639634,-0.2117117117117117,-0.11711711711711711,-0.07657657657657657,-0.06306306306306306,-0.018018018018018018,0.0,0.03153153153153153,0.027027027027027025,0.05855855855855856,0.05855855855855856,0.0,0.0,0.0,0.0,0.0,0.0,0.0,0.0,0.0,0.0,0.0,0.0,0.0,0.0,0.0,0.0,0.0,0.0,0.0,0.0,0.0,0.0,0.0,0.0,0.0,0.0,0.0,0.0,0.0,0.0,0.0,0.0,0.0,0.0,0.0,0.0,0.0,0.0,0.0,0.0,0.0,0.0,0.0,0.0,0.0,0.0,0.0,0.0,0.0,0.0,0.0,0.0,0.0,0.0,0.0,0.0,0.0,0.0,0.0,0.0,0.0,0.0,0.0,0.0,0.0,0.0,0.0,0.0,0.0,0.0,0.0,0.0,0.0,0.0,0.0,0.0,0.0,0.0,0.0,0.0,0.0,0.0,N
0.31531531531531526,0.2117117117117117,0.02252252252252252,-0.28378378378378377,-0.6081081081081081,-0.8468468468468467,-0.7657657657657657,-0.5765765765765766,-0.39639639639639634,-0.2117117117117117,-0.11711711711711711,-0.07657657657657657,-0.06306306306306306,-0.018018018018018018,0.0,0.03153153153153153,0.027027027027027025,0.05855855855855856,0.05855855855855856,0.08108108108108107,0.07207207207207207,0.06306306306306306,0.09009009009009009,0.08108108108108107,0.07207207207207207,0.08108108108108107,0.09009009009009009,0.09909909909909909,0.08108108108108107,0.09909909909909909,0.06306306306306306,0.09459459459459459,0.11711711711711711,0.1081081081081081,0.1081081081081081,0.12612612612612611,0.12162162162162161,0.13513513513513511,0.15315315315315314,0.14414414414414414,0.17117117117117117,0.18018018018018017,0.19819819819819817,0.19819819819819817,0.19369369369369369,0.2117117117117117,0.2207207207207207,0.2207207207207207,0.23423423423423423,0.24774774774774774,0.24324324324324323,0.2612612612612612,0.2612612612612612,0.2567567567567567,0.2567567567567567,0.2657657657657657,0.2612612612612612,0.24324324324324323,0.23873873873873874,0.23873873873873874,0.23873873873873874,0.2207207207207207,0.2117117117117117,0.18918918918918917,0.16666666666666666,0.14864864864864863,0.1306306306306306,0.1126126126126126,0.1081081081081081,0.08558558558558559,0.06306306306306306,0.06306306306306306,0.06306306306306306,0.04504504504504504,0.02252252252252252,0.03153153153153153,0.02252252252252252,0.018018018018018018,0.027027027027027025,0.027027027027027025,0.02252252252252252,0.009009009009009009,0.018018018018018018,0.009009009009009009,0.013513513513513513,0.009009009009009009,0.027027027027027025,0.027027027027027025,0.02252252252252252,0.036036036036036036,0.027027027027027025,0.03153153153153153,0.03153153153153153,0.036036036036036036,0.04504504504504504,0.036036036036036036,0.04954954954954954,0.04504504504504504,0.03153153153153153,0.036036036036036036,0.05405405405405405,0.027027027027027025,0.040540540540540536,0.040540540540540536,0.04504504504504504,0.036036036036036036,0.040540540540540536,0.040540540540540536,0.04504504504504504,0.04954954954954954,0.04954954954954954,0.03153153153153153,0.036036036036036036,0.04504504504504504,0.03153153153153153,0.036036036036036036,0.03153153153153153,0.036036036036036036,0.018018018018018018,0.027027027027027025,0.018018018018018018,0.018018018018018018,0.027027027027027025,0.013513513513513513,0.009009009009009009,0.027027027027027025,0.036036036036036036,0.009009009009009009,0.036036036036036036,0.013513513513513513,0.009009009009009009,0.027027027027027025,0.03153153153153153,0.04504504504504504,0.03153153153153153,0.03153153153153153,0.03153153153153153,0.036036036036036036,0.04954954954954954,0.036036036036036036,0.027027027027027025,0.027027027027027025,0.027027027027027025,0.018018018018018018,0.009009009009009009,0.02252252252252252,0.0045045045045045045,0.0045045045045045045,0.013513513513513513,0.0045045045045045045,-0.0045045045045045045,0.0,0.0,0.0,-0.013513513513513513,-0.013513513513513513,-0.013513513513513513,0.0,-0.013513513513513513,-0.009009009009009009,-0.009009009009009009,-0.009009009009009009,-0.0045045045045045045,-0.009009009009009009,0.013513513513513513,0.0,-0.009009009009009009,-0.0045045045045045045,-0.009009009009009009,-0.013513513513513513,0.0,0.0,0.0,0.0045045045045045045,0.0045045045045045045,0.018018018018018018,0.03153153153153153,0.1126126126126126,0.18918918918918917,0.28378378378378377,0.3333333333333333,0.31081081081081074,0.13513513513513511,-0.12162162162162161,-0.4504504504504504,-0.7477477477477477,-0.8783783783783783,-0.7117117117117117,-0.5315315315315314,-0.34234234234234234,-0.18468468468468466,-0.09459459459459459,-0.06306306306306306,-0.040540540540540536,-0.02252252252252252,0.0,0.03153153153153153,0.036036036036036036,0.04954954954954954,0.05405405405405405,0.06306306306306306,0.08108108108108107,0.07207207207207207,0.05855855855855856,0.07657657657657657,0.06756756756756756,0.08108108108108107,0.08108108108108107,0.07657657657657657,0.08108108108108107,0.07657657657657657,0.08558558558558559,0.09459459459459459,0.07657657657657657,0.1081081081081081,0.09909909909909909,0.1036036036036036,0.12162162162162161,0.0,0.0,0.0,0.0,0.0,0.0,0.0,0.0,0.0,0.0,0.0,0.0,0.0,0.0,0.0,0.0,0.0,0.0,0.0,0.0,0.0,0.0,0.0,0.0,0.0,0.0,0.0,0.0,0.0,0.0,0.0,0.0,0.0,0.0,0.0,0.0,0.0,0.0,0.0,0.0,0.0,0.0,0.0,0.0,0.0,0.0,0.0,0.0,0.0,0.0,0.0,0.0,0.0,0.0,0.0,0.0,0.0,0.0,0.0,0.0,0.0,0.0,0.0,0.0,0.0,0.0,0.0,0.0,0.0,0.0,0.0,0.0,0.0,0.0,0.0,0.0,0.0,0.0,0.0,0.0,0.0,0.0,N
0.31081081081081074,0.13513513513513511,-0.12162162162162161,-0.4504504504504504,-0.7477477477477477,-0.8783783783783783,-0.7117117117117117,-0.5315315315315314,-0.34234234234234234,-0.18468468468468466,-0.09459459459459459,-0.06306306306306306,-0.040540540540540536,-0.02252252252252252,0.0,0.03153153153153153,0.036036036036036036,0.04954954954954954,0.05405405405405405,0.06306306306306306,0.08108108108108107,0.07207207207207207,0.05855855855855856,0.07657657657657657,0.06756756756756756,0.08108108108108107,0.08108108108108107,0.07657657657657657,0.08108108108108107,0.07657657657657657,0.08558558558558559,0.09459459459459459,0.07657657657657657,0.1081081081081081,0.09909909909909909,0.1036036036036036,0.12162162162162161,0.12612612612612611,0.13963963963963963,0.14864864864864863,0.16216216216216214,0.16666666666666666,0.18018018018018017,0.16666666666666666,0.18918918918918917,0.2027027027027027,0.19819819819819817,0.2207207207207207,0.2162162162162162,0.23423423423423423,0.24774774774774774,0.25225225225225223,0.23423423423423423,0.2567567567567567,0.24324324324324323,0.24324324324324323,0.2162162162162162,0.24774774774774774,0.23873873873873874,0.23423423423423423,0.2117117117117117,0.2027027027027027,0.18468468468468466,0.17567567567567566,0.1306306306306306,0.1306306306306306,0.1036036036036036,0.08558558558558559,0.09009009009009009,0.05405405405405405,0.04954954954954954,0.04504504504504504,0.027027027027027025,0.013513513513513513,0.0045045045045045045,0.0,-0.0045045045045045045,-0.009009009009009009,0.0,0.0045045045045045045,0.0,0.0,0.013513513513513513,-0.009009009009009009,0.0,0.009009009009009009,0.0,0.0,0.027027027027027025,0.0045045045045045045,0.0045045045045045045,0.0045045045045045045,0.02252252252252252,0.009009009009009009,0.013513513513513513,0.0045045045045045045,0.0045045045045045045,0.009009009009009009,0.009009009009009009,0.013513513513513513,0.0,0.0,0.0045045045045045045,0.0045045045045045045,0.0,0.0,0.0045045045045045045,0.009009009009009009,0.0,0.009009009009009009,0.0045045045045045045,0.009009009009009009,0.009009009009009009,0.0045045045045045045,0.0,-0.0045045045045045045,-0.0045045045045045045,0.013513513513513513,0.009009009009009009,0.009009009009009009,0.0045045045045045045,0.0,0.009009009009009009,0.013513513513513513,-0.0045045045045045045,0.018018018018018018,0.018018018018018018,0.02252252252252252,0.02252252252252252,0.036036036036036036,0.02252252252252252,0.03153153153153153,0.03153153153153153,0.03153153153153153,0.03153153153153153,0.02252252252252252,0.036036036036036036,0.027027027027027025,0.04504504504504504,0.027027027027027025,0.027027027027027025,0.009009009009009009,0.02252252252252252,0.009009009009009009,0.0045045045045045045,0.027027027027027025,0.02252252252252252,0.013513513513513513,0.009009009009009009,0.0,0.0045045045045045045,0.0045045045045045045,0.0,0.0,0.0045045045045045045,0.013513513513513513,-0.013513513513513513,0.013513513513513513,0.018018018018018018,0.013513513513513513,0.0,0.018018018018018018,0.040540540540540536,0.02252252252252252,0.03153153153153153,0.013513513513513513,0.018018018018018018,0.013513513513513513,0.013513513513513513,0.018018018018018018,0.013513513513513513,0.013513513513513513,0.018018018018018018,0.06756756756756756,0.1126126126126126,0.18918918918918917,0.3198198198198198,0.36036036036036034,0.33783783783783783,0.18918918918918917,-0.05855855855855856,-0.38738738738738737,-0.6891891891891891,-0.8648648648648648,-0.8693693693693693,-0.7117117117117117,-0.5405405405405405,-0.3333333333333333,-0.16666666666666666,-0.09009009009009009,-0.06306306306306306,-0.027027027027027025,0.0,0.02252252252252252,0.04504504504504504,0.06306306306306306,0.07207207207207207,0.09459459459459459,0.07657657657657657,0.08108108108108107,0.1126126126126126,0.09009009009009009,0.09459459459459459,0.1081081081081081,0.1036036036036036,0.1081081081081081,0.1036036036036036,0.11711711711711711,0.11711711711711711,0.1081081081081081,0.12162162162162161,0.12612612612612611,0.13513513513513511,0.14414414414414414,0.16666666666666666,0.16216216216216214,0.16666666666666666,0.18468468468468466,0.0,0.0,0.0,0.0,0.0,0.0,0.0,0.0,0.0,0.0,0.0,0.0,0.0,0.0,0.0,0.0,0.0,0.0,0.0,0.0,0.0,0.0,0.0,0.0,0.0,0.0,0.0,0.0,0.0,0.0,0.0,0.0,0.0,0.0,0.0,0.0,0.0,0.0,0.0,0.0,0.0,0.0,0.0,0.0,0.0,0.0,0.0,0.0,0.0,0.0,0.0,0.0,0.0,0.0,0.0,0.0,0.0,0.0,0.0,0.0,0.0,0.0,0.0,0.0,0.0,0.0,0.0,0.0,0.0,0.0,0.0,0.0,0.0,0.0,0.0,0.0,0.0,0.0,0.0,0.0,0.0,0.0,N
0.33783783783783783,0.18918918918918917,-0.05855855855855856,-0.38738738738738737,-0.6891891891891891,-0.8648648648648648,-0.8693693693693693,-0.7117117117117117,-0.5405405405405405,-0.3333333333333333,-0.16666666666666666,-0.09009009009009009,-0.06306306306306306,-0.027027027027027025,0.0,0.02252252252252252,0.04504504504504504,0.06306306306306306,0.07207207207207207,0.09459459459459459,0.07657657657657657,0.08108108108108107,0.1126126126126126,0.09009009009009009,0.09459459459459459,0.1081081081081081,0.1036036036036036,0.1081081081081081,0.1036036036036036,0.11711711711711711,0.11711711711711711,0.1081081081081081,0.12162162162162161,0.12612612612612611,0.13513513513513511,0.14414414414414414,0.16666666666666666,0.16216216216216214,0.16666666666666666,0.18468468468468466,0.18918918918918917,0.2027027027027027,0.2072072072072072,0.2252252252252252,0.22972972972972971,0.24324324324324323,0.2567567567567567,0.2567567567567567,0.2657657657657657,0.27027027027027023,0.2882882882882883,0.2612612612612612,0.2882882882882883,0.27927927927927926,0.27927927927927926,0.2657657657657657,0.29729729729729726,0.28378378378378377,0.27027027027027023,0.27477477477477474,0.25225225225225223,0.24324324324324323,0.23873873873873874,0.2252252252252252,0.19819819819819817,0.15765765765765763,0.15315315315315314,0.1306306306306306,0.12162162162162161,0.1036036036036036,0.08558558558558559,0.06756756756756756,0.04954954954954954,0.03153153153153153,0.040540540540540536,0.04504504504504504,0.03153153153153153,0.018018018018018018,0.02252252252252252,0.04504504504504504,0.027027027027027025,0.0,0.013513513513513513,0.018018018018018018,0.02252252252252252,0.013513513513513513,0.027027027027027025,0.009009009009009009,0.013513513513513513,0.013513513513513513,0.02252252252252252,0.036036036036036036,0.018018018018018018,0.02252252252252252,0.02252252252252252,0.03153153153153153,0.036036036036036036,0.013513513513513513,0.03153153153153153,0.03153153153153153,0.03153153153153153,0.013513513513513513,0.013513513513513513,0.018018018018018018,0.013513513513513513,0.013513513513513513,0.027027027027027025,0.018018018018018018,0.018018018018018018,0.009009009009009009,0.018018018018018018,0.0045045045045045045,0.02252252252252252,0.018018018018018018,0.0,0.0,0.02252252252252252,0.009009009009009009,0.009009009009009009,0.0,0.0,0.0,0.009009009009009009,0.0,0.0,0.009009009009009009,0.009009009009009009,0.009009009009009009,0.0045045045045045045,0.009009009009009009,0.02252252252252252,0.0,0.013513513513513513,0.036036036036036036,0.03153153153153153,0.027027027027027025,0.03153153153153153,0.036036036036036036,0.027027027027027025,0.018018018018018018,0.009009009009009009,0.018018018018018018,0.0045045045045045045,0.0,0.0045045045045045045,0.009009009009009009,0.013513513513513513,0.009009009009009009,0.013513513513513513,0.0,-0.018018018018018018,-0.0045045045045045045,0.0,-0.013513513513513513,-0.013513513513513513,-0.018018018018018018,-0.013513513513513513,-0.013513513513513513,-0.009009009009009009,0.0,-0.0045045045045045045,-0.0045045045045045045,-0.013513513513513513,-0.018018018018018018,-0.018018018018018018,-0.0045045045045045045,-0.02252252252252252,-0.013513513513513513,0.0,-0.0045045045045045045,-0.027027027027027025,-0.009009009009009009,-0.018018018018018018,-0.0045045045045045045,0.0045045045045045045,0.04504504504504504,0.1036036036036036,0.2117117117117117,0.2882882882882883,0.3333333333333333,0.27927927927927926,0.13513513513513511,-0.1126126126126126,-0.46396396396396394,-0.7837837837837837,-0.8378378378378378,-0.6756756756756757,-0.47297297297297297,-0.3018018018018018,-0.16216216216216214,-0.09009009009009009,-0.04954954954954954,-0.02252252252252252,-0.018018018018018018,0.013513513513513513,0.036036036036036036,0.04954954954954954,0.07207207207207207,0.08108108108108107,0.06756756756756756,0.07657657657657657,0.08558558558558559,0.06756756756756756,0.08558558558558559,0.09909909909909909,0.09009009009009009,0.09909909909909909,0.11711711711711711,0.1036036036036036,0.09009009009009009,0.09909909909909909,0.11711711711711711,0.1306306306306306,0.11711711711711711,0.15765765765765763,0.14414414414414414,0.15315315315315314,0.15315315315315314,0.0,0.0,0.0,0.0,0.0,0.0,0.0,0.0,0.0,0.0,0.0,0.0,0.0,0.0,0.0,0.0,0.0,0.0,0.0,0.0,0.0,0.0,0.0,0.0,0.0,0.0,0.0,0.0,0.0,0.0,0.0,0.0,0.0,0.0,0.0,0.0,0.0,0.0,0.0,0.0,0.0,0.0,0.0,0.0,0.0,0.0,0.0,0.0,0.0,0.0,0.0,0.0,0.0,0.0,0.0,0.0,0.0,0.0,0.0,0.0,0.0,0.0,0.0,0.0,0.0,0.0,0.0,0.0,0.0,0.0,0.0,0.0,0.0,0.0,0.0,0.0,0.0,0.0,0.0,0.0,0.0,0.0,N
0.27927927927927926,0.13513513513513511,-0.1126126126126126,-0.46396396396396394,-0.7837837837837837,-0.8378378378378378,-0.6756756756756757,-0.47297297297297297,-0.3018018018018018,-0.16216216216216214,-0.09009009009009009,-0.04954954954954954,-0.02252252252252252,-0.018018018018018018,0.013513513513513513,0.036036036036036036,0.04954954954954954,0.07207207207207207,0.08108108108108107,0.06756756756756756,0.07657657657657657,0.08558558558558559,0.06756756756756756,0.08558558558558559,0.09909909909909909,0.09009009009009009,0.09909909909909909,0.11711711711711711,0.1036036036036036,0.09009009009009009,0.09909909909909909,0.11711711711711711,0.1306306306306306,0.11711711711711711,0.15765765765765763,0.14414414414414414,0.15315315315315314,0.15315315315315314,0.18018018018018017,0.18468468468468466,0.2072072072072072,0.2207207207207207,0.2207207207207207,0.24324324324324323,0.24324324324324323,0.2567567567567567,0.27027027027027023,0.24774774774774774,0.2612612612612612,0.27927927927927926,0.27477477477477474,0.29729729729729726,0.28378378378378377,0.2882882882882883,0.29729729729729726,0.3018018018018018,0.2927927927927928,0.29729729729729726,0.2612612612612612,0.25225225225225223,0.25225225225225223,0.22972972972972971,0.2072072072072072,0.19369369369369369,0.16666666666666666,0.14864864864864863,0.12162162162162161,0.12162162162162161,0.1036036036036036,0.09009009009009009,0.06756756756756756,0.06306306306306306,0.04954954954954954,0.05405405405405405,0.036036036036036036,0.040540540540540536,0.036036036036036036,0.03153153153153153,0.013513513513513513,0.040540540540540536,0.03153153153153153,0.02252252252252252,0.02252252252252252,0.013513513513513513,0.02252252252252252,0.02252252252252252,0.013513513513513513,0.02252252252252252,0.018018018018018018,0.02252252252252252,0.03153153153153153,0.027027027027027025,0.03153153153153153,0.040540540540540536,0.02252252252252252,0.03153153153153153,0.040540540540540536,0.03153153153153153,0.036036036036036036,0.040540540540540536,0.036036036036036036,0.027027027027027025,0.03153153153153153,0.03153153153153153,0.027027027027027025,0.027027027027027025,0.040540540540540536,0.03153153153153153,0.03153153153153153,0.02252252252252252,0.02252252252252252,0.027027027027027025,0.027027027027027025,0.02252252252252252,0.02252252252252252,0.027027027027027025,0.02252252252252252,0.027027027027027025,0.02252252252252252,0.027027027027027025,0.02252252252252252,0.009009009009009009,0.0,0.0045045045045045045,0.0,0.009009009009009009,0.03153153153153153,0.009009009009009009,0.013513513513513513,0.013513513513513513,0.018018018018018018,0.009009009009009009,0.02252252252252252,0.03153153153153153,0.03153153153153153,0.036036036036036036,0.040540540540540536,0.04954954954954954,0.036036036036036036,0.03153153153153153,0.018018018018018018,0.013513513513513513,0.013513513513513513,0.0045045045045045045,0.018018018018018018,0.009009009009009009,0.02252252252252252,0.009009009009009009,0.018018018018018018,0.0,0.0,-0.018018018018018018,0.0045045045045045045,0.0,0.0,-0.013513513513513513,0.0,0.0,-0.009009009009009009,-0.013513513513513513,0.0,0.0045045045045045045,0.0,-0.0045045045045045045,-0.0045045045045045045,-0.013513513513513513,0.0,0.0045045045045045045,0.0,-0.013513513513513513,0.0,0.0,0.0,0.0,0.0,0.0,0.03153153153153153,0.1081081081081081,0.18918918918918917,0.28378378378378377,0.3513513513513513,0.3018018018018018,0.16216216216216214,-0.12162162162162161,-0.4324324324324324,-0.7477477477477477,-0.8693693693693693,-0.6981981981981982,-0.518018018018018,-0.3243243243243243,-0.17117117117117117,-0.09009009009009009,-0.07207207207207207,-0.036036036036036036,-0.02252252252252252,0.009009009009009009,0.03153153153153153,0.040540540540540536,0.04954954954954954,0.06306306306306306,0.05405405405405405,0.06306306306306306,0.05855855855855856,0.07657657657657657,0.07657657657657657,0.08108108108108107,0.07207207207207207,0.09459459459459459,0.08558558558558559,0.09459459459459459,0.09909909909909909,0.1081081081081081,0.1036036036036036,0.09459459459459459,0.1081081081081081,0.12612612612612611,0.1306306306306306,0.16216216216216214,0.0,0.0,0.0,0.0,0.0,0.0,0.0,0.0,0.0,0.0,0.0,0.0,0.0,0.0,0.0,0.0,0.0,0.0,0.0,0.0,0.0,0.0,0.0,0.0,0.0,0.0,0.0,0.0,0.0,0.0,0.0,0.0,0.0,0.0,0.0,0.0,0.0,0.0,0.0,0.0,0.0,0.0,0.0,0.0,0.0,0.0,0.0,0.0,0.0,0.0,0.0,0.0,0.0,0.0,0.0,0.0,0.0,0.0,0.0,0.0,0.0,0.0,0.0,0.0,0.0,0.0,0.0,0.0,0.0,0.0,0.0,0.0,0.0,0.0,0.0,0.0,0.0,0.0,0.0,0.0,0.0,0.0,N
0.3018018018018018,0.16216216216216214,-0.12162162162162161,-0.4324324324324324,-0.7477477477477477,-0.8693693693693693,-0.6981981981981982,-0.518018018018018,-0.3243243243243243,-0.17117117117117117,-0.09009009009009009,-0.07207207207207207,-0.036036036036036036,-0.02252252252252252,0.009009009009009009,0.03153153153153153,0.040540540540540536,0.04954954954954954,0.06306306306306306,0.05405405405405405,0.06306306306306306,0.05855855855855856,0.07657657657657657,0.07657657657657657,0.08108108108108107,0.07207207207207207,0.09459459459459459,0.08558558558558559,0.09459459459459459,0.09909909909909909,0.1081081081081081,0.1036036036036036,0.09459459459459459,0.1081081081081081,0.12612612612612611,0.1306306306306306,0.16216216216216214,0.14864864864864863,0.15765765765765763,0.15765765765765763,0.17117117117117117,0.18468468468468466,0.18468468468468466,0.2027027027027027,0.2207207207207207,0.22972972972972971,0.22972972972972971,0.24324324324324323,0.23873873873873874,0.24324324324324323,0.2612612612612612,0.2567567567567567,0.2567567567567567,0.27477477477477474,0.25225225225225223,0.2612612612612612,0.2612612612612612,0.24324324324324323,0.25225225225225223,0.24774774774774774,0.23423423423423423,0.23873873873873874,0.2072072072072072,0.19369369369369369,0.16666666666666666,0.15315315315315314,0.12162162162162161,0.09909909909909909,0.08108108108108107,0.07207207207207207,0.06756756756756756,0.04504504504504504,0.04954954954954954,0.04504504504504504,0.027027027027027025,0.018018018018018018,0.0045045045045045045,0.02252252252252252,0.018018018018018018,0.009009009009009009,0.02252252252252252,0.018018018018018018,0.013513513513513513,0.009009009009009009,0.0,0.0,0.0,0.009009009009009009,0.013513513513513513,0.013513513513513513,0.009009009009009009,0.018018018018018018,0.013513513513513513,0.03153153153153153,0.018018018018018018,0.027027027027027025,0.036036036036036036,0.036036036036036036,0.03153153153153153,0.03153153153153153,0.04504504504504504,0.040540540540540536,0.03153153153153153,0.027027027027027025,0.03153153153153153,0.036036036036036036,0.04954954954954954,0.027027027027027025,0.040540540540540536,0.05405405405405405,0.04504504504504504,0.04504504504504504,0.040540540540540536,0.05855855855855856,0.05855855855855856,0.03153153153153153,0.036036036036036036,0.04954954954954954,0.04504504504504504,0.04954954954954954,0.04954954954954954,0.036036036036036036,0.040540540540540536,0.027027027027027025,0.04954954954954954,0.036036036036036036,0.036036036036036036,0.036036036036036036,0.05405405405405405,0.04504504504504504,0.04954954954954954,0.04504504504504504,0.05855855855855856,0.040540540540540536,0.05855855855855856,0.06306306306306306,0.06756756756756756,0.07657657657657657,0.07207207207207207,0.04954954954954954,0.07657657657657657,0.05855855855855856,0.05405405405405405,0.040540540540540536,0.03153153153153153,0.040540540540540536,0.03153153153153153,0.036036036036036036,0.04504504504504504,0.040540540540540536,0.04954954954954954,0.027027027027027025,0.02252252252252252,0.013513513513513513,0.0,0.027027027027027025,0.013513513513513513,0.0,0.02252252252252252,0.018018018018018018,0.013513513513513513,0.009009009009009009,0.02252252252252252,0.013513513513513513,0.013513513513513513,0.009009009009009009,0.027027027027027025,0.013513513513513513,0.03153153153153153,0.027027027027027025,0.027027027027027025,0.013513513513513513,0.03153153153153153,0.027027027027027025,0.027027027027027025,0.027027027027027025,0.04954954954954954,0.04504504504504504,0.1081081081081081,0.2027027027027027,0.28378378378378377,0.3513513513513513,0.33783783783783783,0.18468468468468466,-0.08108108108108107,-0.38738738738738737,-0.6666666666666666,-0.8963963963963963,-0.8603603603603602,-0.7387387387387386,-0.536036036036036,-0.36036036036036034,-0.18918918918918917,-0.08558558558558559,-0.07207207207207207,-0.036036036036036036,-0.009009009009009009,0.03153153153153153,0.05405405405405405,0.09009009009009009,0.09909909909909909,0.09459459459459459,0.1081081081081081,0.1126126126126126,0.1081081081081081,0.09909909909909909,0.11711711711711711,0.1036036036036036,0.1081081081081081,0.12162162162162161,0.1126126126126126,0.12162162162162161,0.13513513513513511,0.1306306306306306,0.1306306306306306,0.13963963963963963,0.14864864864864863,0.14414414414414414,0.0,0.0,0.0,0.0,0.0,0.0,0.0,0.0,0.0,0.0,0.0,0.0,0.0,0.0,0.0,0.0,0.0,0.0,0.0,0.0,0.0,0.0,0.0,0.0,0.0,0.0,0.0,0.0,0.0,0.0,0.0,0.0,0.0,0.0,0.0,0.0,0.0,0.0,0.0,0.0,0.0,0.0,0.0,0.0,0.0,0.0,0.0,0.0,0.0,0.0,0.0,0.0,0.0,0.0,0.0,0.0,0.0,0.0,0.0,0.0,0.0,0.0,0.0,0.0,0.0,0.0,0.0,0.0,0.0,0.0,0.0,0.0,0.0,0.0,0.0,0.0,0.0,0.0,0.0,0.0,0.0,0.0,N
0.33783783783783783,0.18468468468468466,-0.08108108108108107,-0.38738738738738737,-0.6666666666666666,-0.8963963963963963,-0.8603603603603602,-0.7387387387387386,-0.536036036036036,-0.36036036036036034,-0.18918918918918917,-0.08558558558558559,-0.07207207207207207,-0.036036036036036036,-0.009009009009009009,0.03153153153153153,0.05405405405405405,0.09009009009009009,0.09909909909909909,0.09459459459459459,0.1081081081081081,0.1126126126126126,0.1081081081081081,0.09909909909909909,0.11711711711711711,0.1036036036036036,0.1081081081081081,0.12162162162162161,0.1126126126126126,0.12162162162162161,0.13513513513513511,0.1306306306306306,0.1306306306306306,0.13963963963963963,0.14864864864864863,0.14414414414414414,0.16216216216216214,0.17567567567567566,0.18018018018018017,0.18018018018018017,0.19819819819819817,0.2072072072072072,0.2207207207207207,0.2207207207207207,0.23873873873873874,0.2567567567567567,0.24774774774774774,0.27027027027027023,0.27477477477477474,0.27477477477477474,0.2882882882882883,0.29729729729729726,0.2882882882882883,0.29729729729729726,0.29729729729729726,0.29729729729729726,0.3018018018018018,0.31081081081081074,0.31081081081081074,0.3063063063063063,0.29729729729729726,0.2927927927927928,0.27927927927927926,0.25225225225225223,0.2162162162162162,0.2027027027027027,0.16216216216216214,0.13513513513513511,0.11711711711711711,0.08558558558558559,0.06756756756756756,0.06756756756756756,0.04954954954954954,0.05405405405405405,0.03153153153153153,0.027027027027027025,0.009009009009009009,0.009009009009009009,0.0045045045045045045,0.018018018018018018,0.0,0.018018018018018018,0.009009009009009009,0.009009009009009009,0.0,0.009009009009009009,0.0,0.0,0.013513513513513513,0.018018018018018018,0.027027027027027025,0.027027027027027025,0.013513513513513513,0.02252252252252252,0.03153153153153153,0.018018018018018018,0.027027027027027025,0.02252252252252252,0.02252252252252252,0.013513513513513513,0.013513513513513513,0.027027027027027025,0.027027027027027025,0.027027027027027025,0.03153153153153153,0.027027027027027025,0.03153153153153153,0.03153153153153153,0.04954954954954954,0.03153153153153153,0.027027027027027025,0.02252252252252252,0.040540540540540536,0.036036036036036036,0.036036036036036036,0.040540540540540536,0.03153153153153153,0.05855855855855856,0.1081081081081081,0.2117117117117117,0.3243243243243243,0.40090090090090086,0.37387387387387383,0.19819819819819817,-0.09909909909909909,-0.46396396396396394,-0.8108108108108107,-1.0,-0.954954954954955,-0.7567567567567567,-0.5405405405405405,-0.3243243243243243,-0.16666666666666666,-0.07207207207207207,-0.04954954954954954,-0.013513513513513513,0.018018018018018018,0.03153153153153153,0.05405405405405405,0.07207207207207207,0.07207207207207207,0.06756756756756756,0.08558558558558559,0.07657657657657657,0.08108108108108107,0.07657657657657657,0.1036036036036036,0.1036036036036036,0.1081081081081081,0.1126126126126126,0.1081081081081081,0.1126126126126126,0.1126126126126126,0.11711711711711711,0.1126126126126126,0.12162162162162161,0.13963963963963963,0.14864864864864863,0.14414414414414414,0.14864864864864863,0.16666666666666666,0.17117117117117117,0.17117117117117117,0.19369369369369369,0.2072072072072072,0.2162162162162162,0.22972972972972971,0.23873873873873874,0.25225225225225223,0.2657657657657657,0.2612612612612612,0.27027027027027023,0.2612612612612612,0.2612612612612612,0.2567567567567567,0.2657657657657657,0.2612612612612612,0.2612612612612612,0.24324324324324323,0.23873873873873874,0.23423423423423423,0.22972972972972971,0.2027027027027027,0.19819819819819817,0.17567567567567566,0.14864864864864863,0.14864864864864863,0.1126126126126126,0.08558558558558559,0.08558558558558559,0.07207207207207207,0.05855855855855856,0.07207207207207207,0.05405405405405405,0.05405405405405405,0.040540540540540536,0.04954954954954954,0.04954954954954954,0.04954954954954954,0.04504504504504504,0.05855855855855856,0.06756756756756756,0.04954954954954954,0.05405405405405405,0.04504504504504504,0.05855855855855856,0.05405405405405405,0.05855855855855856,0.04954954954954954,0.04954954954954954,0.05855855855855856,0.05855855855855856,0.04954954954954954,0.04504504504504504,0.04504504504504504,0.04504504504504504,0.036036036036036036,0.05405405405405405,0.0,0.0,0.0,0.0,0.0,0.0,0.0,0.0,0.0,0.0,0.0,0.0,0.0,0.0,0.0,0.0,0.0,0.0,0.0,0.0,0.0,0.0,0.0,0.0,0.0,0.0,0.0,0.0,0.0,0.0,0.0,0.0,0.0,0.0,0.0,0.0,0.0,0.0,0.0,0.0,0.0,0.0,0.0,0.0,0.0,0.0,0.0,0.0,0.0,0.0,0.0,0.0,0.0,0.0,0.0,0.0,0.0,0.0,0.0,0.0,0.0,0.0,0.0,0.0,0.0,0.0,0.0,0.0,0.0,0.0,0.0,0.0,0.0,0.0,0.0,0.0,0.0,0.0,0.0,0.0,0.0,0.0,N
0.37387387387387383,0.19819819819819817,-0.09909909909909909,-0.46396396396396394,-0.8108108108108107,-1.0,-0.954954954954955,-0.7567567567567567,-0.5405405405405405,-0.3243243243243243,-0.16666666666666666,-0.07207207207207207,-0.04954954954954954,-0.013513513513513513,0.018018018018018018,0.03153153153153153,0.05405405405405405,0.07207207207207207,0.07207207207207207,0.06756756756756756,0.08558558558558559,0.07657657657657657,0.08108108108108107,0.07657657657657657,0.1036036036036036,0.1036036036036036,0.1081081081081081,0.1126126126126126,0.1081081081081081,0.1126126126126126,0.1126126126126126,0.11711711711711711,0.1126126126126126,0.12162162162162161,0.13963963963963963,0.14864864864864863,0.14414414414414414,0.14864864864864863,0.16666666666666666,0.17117117117117117,0.17117117117117117,0.19369369369369369,0.2072072072072072,0.2162162162162162,0.22972972972972971,0.23873873873873874,0.25225225225225223,0.2657657657657657,0.2612612612612612,0.27027027027027023,0.2612612612612612,0.2612612612612612,0.2567567567567567,0.2657657657657657,0.2612612612612612,0.2612612612612612,0.24324324324324323,0.23873873873873874,0.23423423423423423,0.22972972972972971,0.2027027027027027,0.19819819819819817,0.17567567567567566,0.14864864864864863,0.14864864864864863,0.1126126126126126,0.08558558558558559,0.08558558558558559,0.07207207207207207,0.05855855855855856,0.07207207207207207,0.05405405405405405,0.05405405405405405,0.040540540540540536,0.04954954954954954,0.04954954954954954,0.04954954954954954,0.04504504504504504,0.05855855855855856,0.06756756756756756,0.04954954954954954,0.05405405405405405,0.04504504504504504,0.05855855855855856,0.05405405405405405,0.05855855855855856,0.04954954954954954,0.04954954954954954,0.05855855855855856,0.05855855855855856,0.04954954954954954,0.04504504504504504,0.04504504504504504,0.04504504504504504,0.036036036036036036,0.05405405405405405,0.04504504504504504,0.04504504504504504,0.036036036036036036,0.04954954954954954,0.04504504504504504,0.040540540540540536,0.04504504504504504,0.04954954954954954,0.03153153153153153,0.040540540540540536,0.036036036036036036,0.036036036036036036,0.02252252252252252,0.04504504504504504,0.040540540540540536,0.036036036036036036,0.027027027027027025,0.040540540540540536,0.03153153153153153,0.036036036036036036,0.02252252252252252,0.03153153153153153,0.027027027027027025,0.040540540540540536,0.04954954954954954,0.04504504504504504,0.03153153153153153,0.04954954954954954,0.04504504504504504,0.036036036036036036,0.036036036036036036,0.036036036036036036,0.03153153153153153,0.03153153153153153,0.027027027027027025,0.013513513513513513,0.02252252252252252,0.040540540540540536,0.013513513513513513,0.027027027027027025,0.03153153153153153,0.027027027027027025,0.03153153153153153,0.03153153153153153,0.036036036036036036,0.013513513513513513,0.027027027027027025,0.036036036036036036,0.036036036036036036,0.03153153153153153,0.040540540540540536,0.03153153153153153,0.03153153153153153,0.02252252252252252,0.03153153153153153,0.0,0.03153153153153153,0.036036036036036036,0.027027027027027025,0.018018018018018018,0.027027027027027025,0.036036036036036036,0.036036036036036036,0.027027027027027025,0.03153153153153153,0.027027027027027025,0.02252252252252252,0.013513513513513513,0.03153153153153153,0.027027027027027025,0.036036036036036036,0.036036036036036036,0.03153153153153153,0.03153153153153153,0.04954954954954954,0.04954954954954954,0.05855855855855856,0.06756756756756756,0.03153153153153153,0.03153153153153153,0.03153153153153153,0.03153153153153153,0.013513513513513513,0.009009009009009009,0.02252252252252252,0.0045045045045045045,0.0045045045045045045,0.0,-0.0045045045045045045,-0.013513513513513513,0.0,0.0,0.0,0.0,0.009009009009009009,0.0,0.013513513513513513,0.009009009009009009,-0.0045045045045045045,0.0,0.0,0.0,0.0,0.018018018018018018,0.013513513513513513,0.009009009009009009,0.009009009009009009,0.02252252252252252,0.0,0.0,0.009009009009009009,0.013513513513513513,0.02252252252252252,0.04954954954954954,0.09459459459459459,0.18018018018018017,0.27027027027027023,0.3288288288288288,0.31531531531531526,0.17567567567567566,-0.09009009009009009,-0.4189189189189189,0.0,0.0,0.0,0.0,0.0,0.0,0.0,0.0,0.0,0.0,0.0,0.0,0.0,0.0,0.0,0.0,0.0,0.0,0.0,0.0,0.0,0.0,0.0,0.0,0.0,0.0,0.0,0.0,0.0,0.0,0.0,0.0,0.0,0.0,0.0,0.0,0.0,0.0,0.0,0.0,0.0,0.0,0.0,0.0,0.0,0.0,0.0,0.0,0.0,0.0,0.0,0.0,0.0,0.0,0.0,0.0,0.0,0.0,0.0,0.0,0.0,0.0,0.0,0.0,0.0,0.0,0.0,0.0,0.0,0.0,0.0,0.0,0.0,0.0,0.0,0.0,0.0,0.0,0.0,0.0,0.0,0.0,N
0.31531531531531526,0.17567567567567566,-0.09009009009009009,-0.4189189189189189,-0.7207207207207207,-0.9189189189189189,-0.9009009009009008,-0.7342342342342342,-0.554054054054054,-0.37387387387387383,-0.2162162162162162,-0.1081081081081081,-0.06756756756756756,-0.040540540540540536,-0.0045045045045045045,0.013513513513513513,0.040540540540540536,0.05405405405405405,0.07207207207207207,0.08108108108108107,0.09009009009009009,0.1036036036036036,0.09459459459459459,0.09009009009009009,0.1126126126126126,0.1036036036036036,0.11711711711711711,0.1081081081081081,0.1036036036036036,0.1126126126126126,0.11711711711711711,0.11711711711711711,0.13513513513513511,0.12612612612612611,0.13513513513513511,0.14414414414414414,0.15315315315315314,0.17117117117117117,0.17567567567567566,0.18468468468468466,0.18018018018018017,0.2117117117117117,0.2117117117117117,0.2162162162162162,0.23423423423423423,0.24774774774774774,0.25225225225225223,0.2567567567567567,0.27477477477477474,0.28378378378378377,0.2882882882882883,0.2882882882882883,0.3018018018018018,0.3063063063063063,0.31081081081081074,0.31081081081081074,0.28378378378378377,0.2927927927927928,0.31531531531531526,0.2927927927927928,0.31081081081081074,0.3018018018018018,0.28378378378378377,0.2567567567567567,0.2567567567567567,0.23423423423423423,0.2117117117117117,0.17567567567567566,0.16216216216216214,0.13963963963963963,0.13513513513513511,0.11711711711711711,0.09909909909909909,0.08558558558558559,0.06306306306306306,0.06756756756756756,0.05405405405405405,0.05405405405405405,0.040540540540540536,0.03153153153153153,0.02252252252252252,0.036036036036036036,0.03153153153153153,0.02252252252252252,0.009009009009009009,0.027027027027027025,0.027027027027027025,0.02252252252252252,0.02252252252252252,0.027027027027027025,0.03153153153153153,0.03153153153153153,0.02252252252252252,0.036036036036036036,0.05405405405405405,0.05855855855855856,0.05405405405405405,0.05855855855855856,0.05405405405405405,0.04954954954954954,0.04954954954954954,0.04504504504504504,0.036036036036036036,0.04504504504504504,0.036036036036036036,0.040540540540540536,0.04504504504504504,0.06306306306306306,0.06306306306306306,0.05855855855855856,0.036036036036036036,0.05405405405405405,0.05855855855855856,0.06306306306306306,0.05405405405405405,0.06306306306306306,0.05855855855855856,0.040540540540540536,0.04504504504504504,0.05405405405405405,0.040540540540540536,0.05855855855855856,0.04954954954954954,0.040540540540540536,0.036036036036036036,0.04954954954954954,0.05855855855855856,0.04954954954954954,0.05405405405405405,0.04504504504504504,0.03153153153153153,0.036036036036036036,0.036036036036036036,0.05405405405405405,0.04504504504504504,0.05855855855855856,0.06306306306306306,0.05405405405405405,0.06306306306306306,0.05405405405405405,0.06306306306306306,0.05855855855855856,0.040540540540540536,0.05405405405405405,0.040540540540540536,0.02252252252252252,0.03153153153153153,0.02252252252252252,0.009009009009009009,0.027027027027027025,0.02252252252252252,0.013513513513513513,0.027027027027027025,0.013513513513513513,0.0045045045045045045,0.02252252252252252,0.018018018018018018,0.03153153153153153,0.0045045045045045045,0.0045045045045045045,0.027027027027027025,0.02252252252252252,0.009009009009009009,0.009009009009009009,0.018018018018018018,0.02252252252252252,0.0,0.018018018018018018,0.03153153153153153,0.027027027027027025,0.027027027027027025,0.02252252252252252,0.013513513513513513,0.02252252252252252,0.018018018018018018,0.018018018018018018,0.018018018018018018,0.018018018018018018,0.036036036036036036,0.05855855855855856,0.12612612612612611,0.2162162162162162,0.31081081081081074,0.36486486486486486,0.36036036036036034,0.2162162162162162,-0.036036036036036036,-0.34234234234234234,-0.6846846846846847,-0.9009009009009008,-0.7342342342342342,-0.545045045045045,-0.35585585585585583,-0.18018018018018017,-0.08558558558558559,-0.05855855855855856,-0.02252252252252252,0.0,0.02252252252252252,0.04504504504504504,0.07657657657657657,0.07207207207207207,0.1036036036036036,0.09459459459459459,0.1081081081081081,0.1036036036036036,0.1126126126126126,0.1126126126126126,0.1126126126126126,0.11711711711711711,0.11711711711711711,0.1081081081081081,0.11711711711711711,0.12612612612612611,0.1126126126126126,0.11711711711711711,0.13963963963963963,0.13513513513513511,0.0,0.0,0.0,0.0,0.0,0.0,0.0,0.0,0.0,0.0,0.0,0.0,0.0,0.0,0.0,0.0,0.0,0.0,0.0,0.0,0.0,0.0,0.0,0.0,0.0,0.0,0.0,0.0,0.0,0.0,0.0,0.0,0.0,0.0,0.0,0.0,0.0,0.0,0.0,0.0,0.0,0.0,0.0,0.0,0.0,0.0,0.0,0.0,0.0,0.0,0.0,0.0,0.0,0.0,0.0,0.0,0.0,0.0,0.0,0.0,0.0,0.0,0.0,0.0,0.0,0.0,0.0,0.0,0.0,0.0,0.0,0.0,0.0,0.0,0.0,0.0,0.0,0.0,0.0,0.0,0.0,0.0,N
0.36036036036036034,0.2162162162162162,-0.036036036036036036,-0.34234234234234234,-0.6846846846846847,-0.9009009009009008,-0.7342342342342342,-0.545045045045045,-0.35585585585585583,-0.18018018018018017,-0.08558558558558559,-0.05855855855855856,-0.02252252252252252,0.0,0.02252252252252252,0.04504504504504504,0.07657657657657657,0.07207207207207207,0.1036036036036036,0.09459459459459459,0.1081081081081081,0.1036036036036036,0.1126126126126126,0.1126126126126126,0.1126126126126126,0.11711711711711711,0.11711711711711711,0.1081081081081081,0.11711711711711711,0.12612612612612611,0.1126126126126126,0.11711711711711711,0.13963963963963963,0.13513513513513511,0.14864864864864863,0.16666666666666666,0.16216216216216214,0.16666666666666666,0.17567567567567566,0.19819819819819817,0.19819819819819817,0.2117117117117117,0.23873873873873874,0.22972972972972971,0.24324324324324323,0.24324324324324323,0.2612612612612612,0.23873873873873874,0.2882882882882883,0.27927927927927926,0.27477477477477474,0.28378378378378377,0.27927927927927926,0.27477477477477474,0.28378378378378377,0.27927927927927926,0.27477477477477474,0.2612612612612612,0.2657657657657657,0.24774774774774774,0.2567567567567567,0.23873873873873874,0.2027027027027027,0.18018018018018017,0.16216216216216214,0.1306306306306306,0.12612612612612611,0.1036036036036036,0.08558558558558559,0.06306306306306306,0.05855855855855856,0.040540540540540536,0.03153153153153153,0.02252252252252252,0.04504504504504504,0.018018018018018018,0.036036036036036036,0.036036036036036036,0.018018018018018018,0.0045045045045045045,0.018018018018018018,0.018018018018018018,0.018018018018018018,0.0045045045045045045,0.018018018018018018,0.009009009009009009,0.03153153153153153,0.036036036036036036,0.03153153153153153,0.02252252252252252,0.02252252252252252,0.018018018018018018,0.03153153153153153,0.036036036036036036,0.036036036036036036,0.036036036036036036,0.027027027027027025,0.018018018018018018,0.040540540540540536,0.036036036036036036,0.040540540540540536,0.04504504504504504,0.03153153153153153,0.03153153153153153,0.040540540540540536,0.03153153153153153,0.04504504504504504,0.027027027027027025,0.036036036036036036,0.03153153153153153,0.027027027027027025,0.036036036036036036,0.03153153153153153,0.036036036036036036,0.013513513513513513,0.02252252252252252,0.0,0.018018018018018018,0.03153153153153153,0.018018018018018018,0.0045045045045045045,0.013513513513513513,0.02252252252252252,0.0045045045045045045,0.0045045045045045045,0.0045045045045045045,0.009009009009009009,0.009009009009009009,0.0045045045045045045,0.03153153153153153,0.027027027027027025,0.02252252252252252,0.027027027027027025,0.018018018018018018,0.036036036036036036,0.027027027027027025,0.02252252252252252,0.02252252252252252,0.040540540540540536,0.03153153153153153,0.027027027027027025,0.040540540540540536,0.02252252252252252,0.027027027027027025,0.013513513513513513,0.009009009009009009,0.0045045045045045045,0.0,0.009009009009009009,0.0,0.0,0.0,0.0,0.0,0.0,0.0,-0.0045045045045045045,-0.0045045045045045045,0.0,0.0,-0.0045045045045045045,-0.0045045045045045045,0.0045045045045045045,0.0,0.0,0.0,0.009009009009009009,0.013513513513513513,0.009009009009009009,0.0,0.0045045045045045045,0.018018018018018018,0.009009009009009009,-0.0045045045045045045,-0.0045045045045045045,0.013513513513513513,0.02252252252252252,0.03153153153153153,0.07657657657657657,0.17567567567567566,0.27027027027027023,0.3468468468468468,0.3693693693693693,0.29729729729729726,0.12162162162162161,-0.17567567567567566,-0.5090090090090089,-0.7927927927927927,-0.8063063063063063,-0.6171171171171171,-0.4279279279279279,-0.24774774774774774,-0.09909909909909909,-0.040540540540540536,-0.040540540540540536,-0.0045045045045045045,0.018018018018018018,0.05405405405405405,0.07657657657657657,0.09009009009009009,0.09909909909909909,0.1036036036036036,0.09009009009009009,0.09459459459459459,0.09909909909909909,0.12162162162162161,0.09459459459459459,0.1126126126126126,0.1081081081081081,0.11711711711711711,0.1126126126126126,0.12612612612612611,0.1126126126126126,0.1306306306306306,0.12612612612612611,0.13513513513513511,0.13513513513513511,0.14414414414414414,0.0,0.0,0.0,0.0,0.0,0.0,0.0,0.0,0.0,0.0,0.0,0.0,0.0,0.0,0.0,0.0,0.0,0.0,0.0,0.0,0.0,0.0,0.0,0.0,0.0,0.0,0.0,0.0,0.0,0.0,0.0,0.0,0.0,0.0,0.0,0.0,0.0,0.0,0.0,0.0,0.0,0.0,0.0,0.0,0.0,0.0,0.0,0.0,0.0,0.0,0.0,0.0,0.0,0.0,0.0,0.0,0.0,0.0,0.0,0.0,0.0,0.0,0.0,0.0,0.0,0.0,0.0,0.0,0.0,0.0,0.0,0.0,0.0,0.0,0.0,0.0,0.0,0.0,0.0,0.0,0.0,0.0,N
0.29729729729729726,0.12162162162162161,-0.17567567567567566,-0.5090090090090089,-0.7927927927927927,-0.8063063063063063,-0.6171171171171171,-0.4279279279279279,-0.24774774774774774,-0.09909909909909909,-0.040540540540540536,-0.040540540540540536,-0.0045045045045045045,0.018018018018018018,0.05405405405405405,0.07657657657657657,0.09009009009009009,0.09909909909909909,0.1036036036036036,0.09009009009009009,0.09459459459459459,0.09909909909909909,0.12162162162162161,0.09459459459459459,0.1126126126126126,0.1081081081081081,0.11711711711711711,0.1126126126126126,0.12612612612612611,0.1126126126126126,0.1306306306306306,0.12612612612612611,0.13513513513513511,0.13513513513513511,0.14414414414414414,0.13963963963963963,0.15765765765765763,0.17117117117117117,0.18468468468468466,0.19369369369369369,0.2072072072072072,0.2117117117117117,0.2252252252252252,0.2252252252252252,0.23423423423423423,0.23873873873873874,0.25225225225225223,0.24774774774774774,0.27027027027027023,0.28378378378378377,0.27477477477477474,0.27027027027027023,0.27927927927927926,0.27477477477477474,0.27927927927927926,0.2612612612612612,0.27027027027027023,0.2567567567567567,0.27027027027027023,0.24774774774774774,0.22972972972972971,0.2162162162162162,0.19369369369369369,0.17567567567567566,0.16216216216216214,0.12612612612612611,0.1036036036036036,0.09009009009009009,0.06306306306306306,0.05405405405405405,0.05855855855855856,0.04504504504504504,0.02252252252252252,0.03153153153153153,0.040540540540540536,0.027027027027027025,0.02252252252252252,0.02252252252252252,0.018018018018018018,0.009009009009009009,0.018018018018018018,0.0045045045045045045,0.03153153153153153,0.03153153153153153,0.009009009009009009,0.0,0.018018018018018018,0.0,0.0045045045045045045,0.03153153153153153,0.013513513513513513,0.018018018018018018,0.027027027027027025,0.018018018018018018,0.0045045045045045045,0.013513513513513513,0.03153153153153153,0.027027027027027025,0.018018018018018018,0.027027027027027025,0.013513513513513513,0.013513513513513513,0.013513513513513513,0.013513513513513513,0.02252252252252252,0.027027027027027025,0.013513513513513513,0.027027027027027025,0.009009009009009009,0.018018018018018018,0.02252252252252252,0.0045045045045045045,0.009009009009009009,0.013513513513513513,0.0045045045045045045,0.018018018018018018,0.0045045045045045045,0.02252252252252252,0.0,-0.0045045045045045045,0.0,0.0045045045045045045,0.0,0.0,0.009009009009009009,0.0,-0.018018018018018018,0.0,-0.0045045045045045045,0.0,0.0,0.009009009009009009,0.009009009009009009,0.009009009009009009,0.03153153153153153,0.013513513513513513,0.013513513513513513,0.04504504504504504,0.027027027027027025,0.027027027027027025,0.018018018018018018,0.013513513513513513,0.0045045045045045045,0.0,0.0045045045045045045,0.009009009009009009,0.0,-0.009009009009009009,0.0045045045045045045,-0.009009009009009009,0.0,-0.013513513513513513,-0.018018018018018018,-0.02252252252252252,-0.013513513513513513,0.0,-0.027027027027027025,0.0,0.0,-0.009009009009009009,-0.013513513513513513,-0.0045045045045045045,-0.013513513513513513,0.0,0.0,0.0,-0.009009009009009009,-0.013513513513513513,-0.0045045045045045045,0.0045045045045045045,0.0,0.0045045045045045045,0.0045045045045045045,0.0045045045045045045,-0.013513513513513513,0.02252252252252252,0.040540540540540536,0.1081081081081081,0.2162162162162162,0.29729729729729726,0.3468468468468468,0.29729729729729726,0.15765765765765763,-0.09909909909909909,-0.4324324324324324,-0.7072072072072072,-0.8648648648648648,-0.7702702702702702,-0.5990990990990991,-0.4144144144144144,-0.22972972972972971,-0.1036036036036036,-0.04504504504504504,-0.018018018018018018,-0.013513513513513513,0.009009009009009009,0.02252252252252252,0.03153153153153153,0.06306306306306306,0.07657657657657657,0.06306306306306306,0.05855855855855856,0.06756756756756756,0.08558558558558559,0.08108108108108107,0.09009009009009009,0.08558558558558559,0.09909909909909909,0.09909909909909909,0.1036036036036036,0.08558558558558559,0.1081081081081081,0.1081081081081081,0.1126126126126126,0.09909909909909909,0.1036036036036036,0.11711711711711711,0.12162162162162161,0.0,0.0,0.0,0.0,0.0,0.0,0.0,0.0,0.0,0.0,0.0,0.0,0.0,0.0,0.0,0.0,0.0,0.0,0.0,0.0,0.0,0.0,0.0,0.0,0.0,0.0,0.0,0.0,0.0,0.0,0.0,0.0,0.0,0.0,0.0,0.0,0.0,0.0,0.0,0.0,0.0,0.0,0.0,0.0,0.0,0.0,0.0,0.0,0.0,0.0,0.0,0.0,0.0,0.0,0.0,0.0,0.0,0.0,0.0,0.0,0.0,0.0,0.0,0.0,0.0,0.0,0.0,0.0,0.0,0.0,0.0,0.0,0.0,0.0,0.0,0.0,0.0,0.0,0.0,0.0,0.0,0.0,N
0.29729729729729726,0.15765765765765763,-0.09909909909909909,-0.4324324324324324,-0.7072072072072072,-0.8648648648648648,-0.7702702702702702,-0.5990990990990991,-0.4144144144144144,-0.22972972972972971,-0.1036036036036036,-0.04504504504504504,-0.018018018018018018,-0.013513513513513513,0.009009009009009009,0.02252252252252252,0.03153153153153153,0.06306306306306306,0.07657657657657657,0.06306306306306306,0.05855855855855856,0.06756756756756756,0.08558558558558559,0.08108108108108107,0.09009009009009009,0.08558558558558559,0.09909909909909909,0.09909909909909909,0.1036036036036036,0.08558558558558559,0.1081081081081081,0.1081081081081081,0.1126126126126126,0.09909909909909909,0.1036036036036036,0.11711711711711711,0.12162162162162161,0.1306306306306306,0.13513513513513511,0.15765765765765763,0.16666666666666666,0.17567567567567566,0.18918918918918917,0.2162162162162162,0.2252252252252252,0.2252252252252252,0.2162162162162162,0.23873873873873874,0.2567567567567567,0.23873873873873874,0.2567567567567567,0.24774774774774774,0.24774774774774774,0.25225225225225223,0.2567567567567567,0.2612612612612612,0.25225225225225223,0.23873873873873874,0.24774774774774774,0.24774774774774774,0.25225225225225223,0.2117117117117117,0.2027027027027027,0.18468468468468466,0.17117117117117117,0.15765765765765763,0.11711711711711711,0.11711711711711711,0.1036036036036036,0.07657657657657657,0.08108108108108107,0.06756756756756756,0.06756756756756756,0.040540540540540536,0.036036036036036036,0.036036036036036036,0.040540540540540536,0.02252252252252252,0.03153153153153153,0.036036036036036036,0.036036036036036036,0.027027027027027025,0.04504504504504504,0.03153153153153153,0.036036036036036036,0.027027027027027025,0.03153153153153153,0.027027027027027025,0.03153153153153153,0.027027027027027025,0.04504504504504504,0.02252252252252252,0.05405405405405405,0.04954954954954954,0.05405405405405405,0.040540540540540536,0.04504504504504504,0.040540540540540536,0.04504504504504504,0.05855855855855856,0.05405405405405405,0.036036036036036036,0.04504504504504504,0.05855855855855856,0.04504504504504504,0.03153153153153153,0.040540540540540536,0.04954954954954954,0.04954954954954954,0.04504504504504504,0.04504504504504504,0.036036036036036036,0.04504504504504504,0.05405405405405405,0.036036036036036036,0.040540540540540536,0.04504504504504504,0.02252252252252252,0.040540540540540536,0.036036036036036036,0.04504504504504504,0.036036036036036036,0.04954954954954954,0.027027027027027025,0.027027027027027025,0.027027027027027025,0.018018018018018018,0.03153153153153153,0.03153153153153153,0.03153153153153153,0.036036036036036036,0.040540540540540536,0.04954954954954954,0.05405405405405405,0.040540540540540536,0.05855855855855856,0.08108108108108107,0.06756756756756756,0.07207207207207207,0.05855855855855856,0.07657657657657657,0.06306306306306306,0.03153153153153153,0.040540540540540536,0.03153153153153153,0.03153153153153153,0.040540540540540536,0.027027027027027025,0.036036036036036036,0.018018018018018018,0.02252252252252252,0.02252252252252252,0.009009009009009009,0.013513513513513513,0.018018018018018018,0.013513513513513513,0.013513513513513513,0.018018018018018018,0.02252252252252252,0.009009009009009009,0.013513513513513513,0.027027027027027025,0.0,0.013513513513513513,0.0045045045045045045,0.009009009009009009,0.027027027027027025,0.013513513513513513,0.0,0.009009009009009009,0.013513513513513513,0.02252252252252252,0.027027027027027025,0.03153153153153153,0.02252252252252252,0.02252252252252252,0.013513513513513513,0.03153153153153153,0.06306306306306306,0.15315315315315314,0.24324324324324323,0.29729729729729726,0.3063063063063063,0.2252252252252252,0.009009009009009009,-0.27027027027027023,-0.581081081081081,-0.8198198198198198,-0.8828828828828827,-0.7792792792792792,-0.5900900900900901,-0.4279279279279279,-0.24324324324324323,-0.12162162162162161,-0.05405405405405405,-0.04504504504504504,-0.009009009009009009,0.009009009009009009,0.027027027027027025,0.04504504504504504,0.05855855855855856,0.07657657657657657,0.09009009009009009,0.06306306306306306,0.08558558558558559,0.08108108108108107,0.08558558558558559,0.09459459459459459,0.09459459459459459,0.09909909909909909,0.1081081081081081,0.12612612612612611,0.1036036036036036,0.12162162162162161,0.13513513513513511,0.13513513513513511,0.12162162162162161,0.1306306306306306,0.0,0.0,0.0,0.0,0.0,0.0,0.0,0.0,0.0,0.0,0.0,0.0,0.0,0.0,0.0,0.0,0.0,0.0,0.0,0.0,0.0,0.0,0.0,0.0,0.0,0.0,0.0,0.0,0.0,0.0,0.0,0.0,0.0,0.0,0.0,0.0,0.0,0.0,0.0,0.0,0.0,0.0,0.0,0.0,0.0,0.0,0.0,0.0,0.0,0.0,0.0,0.0,0.0,0.0,0.0,0.0,0.0,0.0,0.0,0.0,0.0,0.0,0.0,0.0,0.0,0.0,0.0,0.0,0.0,0.0,0.0,0.0,0.0,0.0,0.0,0.0,0.0,0.0,0.0,0.0,0.0,0.0,N
0.3063063063063063,0.2252252252252252,0.009009009009009009,-0.27027027027027023,-0.581081081081081,-0.8198198198198198,-0.8828828828828827,-0.7792792792792792,-0.5900900900900901,-0.4279279279279279,-0.24324324324324323,-0.12162162162162161,-0.05405405405405405,-0.04504504504504504,-0.009009009009009009,0.009009009009009009,0.027027027027027025,0.04504504504504504,0.05855855855855856,0.07657657657657657,0.09009009009009009,0.06306306306306306,0.08558558558558559,0.08108108108108107,0.08558558558558559,0.09459459459459459,0.09459459459459459,0.09909909909909909,0.1081081081081081,0.12612612612612611,0.1036036036036036,0.12162162162162161,0.13513513513513511,0.13513513513513511,0.12162162162162161,0.1306306306306306,0.13963963963963963,0.16216216216216214,0.15765765765765763,0.16666666666666666,0.17567567567567566,0.18918918918918917,0.18918918918918917,0.19369369369369369,0.2072072072072072,0.2252252252252252,0.24774774774774774,0.2612612612612612,0.24324324324324323,0.2612612612612612,0.2567567567567567,0.27477477477477474,0.27927927927927926,0.3018018018018018,0.27477477477477474,0.27477477477477474,0.2657657657657657,0.27927927927927926,0.2657657657657657,0.2612612612612612,0.2612612612612612,0.2612612612612612,0.22972972972972971,0.23423423423423423,0.2117117117117117,0.2027027027027027,0.17567567567567566,0.14864864864864863,0.12162162162162161,0.1306306306306306,0.09459459459459459,0.08108108108108107,0.06306306306306306,0.05405405405405405,0.040540540540540536,0.03153153153153153,0.03153153153153153,0.02252252252252252,0.027027027027027025,0.036036036036036036,0.02252252252252252,0.02252252252252252,0.013513513513513513,0.018018018018018018,0.027027027027027025,0.02252252252252252,0.03153153153153153,0.02252252252252252,0.03153153153153153,0.027027027027027025,0.03153153153153153,0.03153153153153153,0.036036036036036036,0.04504504504504504,0.027027027027027025,0.036036036036036036,0.03153153153153153,0.036036036036036036,0.04504504504504504,0.040540540540540536,0.05405405405405405,0.036036036036036036,0.04504504504504504,0.04504504504504504,0.036036036036036036,0.04504504504504504,0.05405405405405405,0.04504504504504504,0.04504504504504504,0.036036036036036036,0.04504504504504504,0.05855855855855856,0.04504504504504504,0.04954954954954954,0.04954954954954954,0.040540540540540536,0.04504504504504504,0.04504504504504504,0.05405405405405405,0.04504504504504504,0.05405405405405405,0.04504504504504504,0.040540540540540536,0.03153153153153153,0.040540540540540536,0.02252252252252252,0.03153153153153153,0.04954954954954954,0.05405405405405405,0.036036036036036036,0.05405405405405405,0.05405405405405405,0.05855855855855856,0.04954954954954954,0.07207207207207207,0.07207207207207207,0.07207207207207207,0.06306306306306306,0.07207207207207207,0.07207207207207207,0.06306306306306306,0.05405405405405405,0.04504504504504504,0.05405405405405405,0.04954954954954954,0.040540540540540536,0.027027027027027025,0.03153153153153153,0.03153153153153153,0.03153153153153153,0.040540540540540536,0.040540540540540536,0.027027027027027025,0.03153153153153153,0.036036036036036036,0.036036036036036036,0.027027027027027025,0.02252252252252252,0.04504504504504504,0.03153153153153153,0.027027027027027025,0.018018018018018018,0.02252252252252252,0.040540540540540536,0.027027027027027025,0.027027027027027025,0.02252252252252252,0.03153153153153153,0.03153153153153153,0.040540540540540536,0.02252252252252252,0.036036036036036036,0.04954954954954954,0.04504504504504504,0.036036036036036036,0.03153153153153153,0.06756756756756756,0.11711711711711711,0.2027027027027027,0.28378378378378377,0.3288288288288288,0.3333333333333333,0.2117117117117117,-0.036036036036036036,-0.3468468468468468,-0.6486486486486486,-0.8423423423423423,-0.8558558558558558,-0.7207207207207207,-0.527027027027027,-0.33783783783783783,-0.16666666666666666,-0.07207207207207207,-0.0045045045045045045,-0.009009009009009009,0.0045045045045045045,0.06756756756756756,0.07657657657657657,0.09009009009009009,0.1036036036036036,0.1126126126126126,0.1081081081081081,0.12612612612612611,0.12612612612612611,0.1126126126126126,0.13513513513513511,0.12612612612612611,0.13513513513513511,0.13963963963963963,0.14414414414414414,0.14414414414414414,0.15765765765765763,0.1306306306306306,0.16666666666666666,0.16216216216216214,0.16666666666666666,0.17117117117117117,0.17117117117117117,0.0,0.0,0.0,0.0,0.0,0.0,0.0,0.0,0.0,0.0,0.0,0.0,0.0,0.0,0.0,0.0,0.0,0.0,0.0,0.0,0.0,0.0,0.0,0.0,0.0,0.0,0.0,0.0,0.0,0.0,0.0,0.0,0.0,0.0,0.0,0.0,0.0,0.0,0.0,0.0,0.0,0.0,0.0,0.0,0.0,0.0,0.0,0.0,0.0,0.0,0.0,0.0,0.0,0.0,0.0,0.0,0.0,0.0,0.0,0.0,0.0,0.0,0.0,0.0,0.0,0.0,0.0,0.0,0.0,0.0,0.0,0.0,0.0,0.0,0.0,0.0,0.0,0.0,0.0,0.0,0.0,0.0,N
0.3333333333333333,0.2117117117117117,-0.036036036036036036,-0.3468468468468468,-0.6486486486486486,-0.8423423423423423,-0.8558558558558558,-0.7207207207207207,-0.527027027027027,-0.33783783783783783,-0.16666666666666666,-0.07207207207207207,-0.0045045045045045045,-0.009009009009009009,0.0045045045045045045,0.06756756756756756,0.07657657657657657,0.09009009009009009,0.1036036036036036,0.1126126126126126,0.1081081081081081,0.12612612612612611,0.12612612612612611,0.1126126126126126,0.13513513513513511,0.12612612612612611,0.13513513513513511,0.13963963963963963,0.14414414414414414,0.14414414414414414,0.15765765765765763,0.1306306306306306,0.16666666666666666,0.16216216216216214,0.16666666666666666,0.17117117117117117,0.17117117117117117,0.17117117117117117,0.18918918918918917,0.19369369369369369,0.2027027027027027,0.2162162162162162,0.23423423423423423,0.24774774774774774,0.2657657657657657,0.27027027027027023,0.27027027027027023,0.27027027027027023,0.3018018018018018,0.2882882882882883,0.29729729729729726,0.2882882882882883,0.3063063063063063,0.2882882882882883,0.3063063063063063,0.29729729729729726,0.29729729729729726,0.3063063063063063,0.2927927927927928,0.28378378378378377,0.28378378378378377,0.2567567567567567,0.25225225225225223,0.22972972972972971,0.2207207207207207,0.2072072072072072,0.17117117117117117,0.14864864864864863,0.13513513513513511,0.1081081081081081,0.09009009009009009,0.07657657657657657,0.08108108108108107,0.06306306306306306,0.04954954954954954,0.05405405405405405,0.04954954954954954,0.036036036036036036,0.036036036036036036,0.036036036036036036,0.02252252252252252,0.02252252252252252,0.04504504504504504,0.03153153153153153,0.036036036036036036,0.06306306306306306,0.04504504504504504,0.03153153153153153,0.036036036036036036,0.036036036036036036,0.036036036036036036,0.027027027027027025,0.027027027027027025,0.040540540540540536,0.036036036036036036,0.04504504504504504,0.05855855855855856,0.04954954954954954,0.040540540540540536,0.04954954954954954,0.04954954954954954,0.06306306306306306,0.040540540540540536,0.05405405405405405,0.02252252252252252,0.04954954954954954,0.04954954954954954,0.04504504504504504,0.03153153153153153,0.036036036036036036,0.04954954954954954,0.04954954954954954,0.040540540540540536,0.04954954954954954,0.05405405405405405,0.06306306306306306,0.036036036036036036,0.05855855855855856,0.05405405405405405,0.05405405405405405,0.04954954954954954,0.04504504504504504,0.036036036036036036,0.04954954954954954,0.036036036036036036,0.036036036036036036,0.03153153153153153,0.05405405405405405,0.036036036036036036,0.036036036036036036,0.04504504504504504,0.05405405405405405,0.040540540540540536,0.05405405405405405,0.06306306306306306,0.06306306306306306,0.05405405405405405,0.06756756756756756,0.06306306306306306,0.05405405405405405,0.05405405405405405,0.04504504504504504,0.04504504504504504,0.027027027027027025,0.02252252252252252,0.040540540540540536,0.027027027027027025,0.03153153153153153,0.03153153153153153,0.027027027027027025,0.027027027027027025,0.027027027027027025,0.036036036036036036,0.027027027027027025,0.018018018018018018,0.036036036036036036,0.027027027027027025,0.03153153153153153,0.018018018018018018,0.0,0.018018018018018018,0.018018018018018018,0.009009009009009009,0.0045045045045045045,0.018018018018018018,0.027027027027027025,0.0045045045045045045,0.027027027027027025,0.036036036036036036,0.018018018018018018,0.02252252252252252,0.027027027027027025,0.009009009009009009,0.02252252252252252,0.03153153153153153,0.036036036036036036,0.04954954954954954,0.1036036036036036,0.18918918918918917,0.27027027027027023,0.34234234234234234,0.3333333333333333,0.2207207207207207,-0.013513513513513513,-0.3018018018018018,-0.6216216216216215,-0.8423423423423423,-0.8783783783783783,-0.7522522522522521,-0.572072072072072,-0.38738738738738737,-0.2162162162162162,-0.08558558558558559,-0.040540540540540536,-0.0045045045045045045,0.018018018018018018,0.03153153153153153,0.05405405405405405,0.08108108108108107,0.09459459459459459,0.09909909909909909,0.1081081081081081,0.1126126126126126,0.12162162162162161,0.14864864864864863,0.1306306306306306,0.13513513513513511,0.13963963963963963,0.1306306306306306,0.12612612612612611,0.12612612612612611,0.15315315315315314,0.14864864864864863,0.13513513513513511,0.13963963963963963,0.16216216216216214,0.16216216216216214,0.18018018018018017,0.0,0.0,0.0,0.0,0.0,0.0,0.0,0.0,0.0,0.0,0.0,0.0,0.0,0.0,0.0,0.0,0.0,0.0,0.0,0.0,0.0,0.0,0.0,0.0,0.0,0.0,0.0,0.0,0.0,0.0,0.0,0.0,0.0,0.0,0.0,0.0,0.0,0.0,0.0,0.0,0.0,0.0,0.0,0.0,0.0,0.0,0.0,0.0,0.0,0.0,0.0,0.0,0.0,0.0,0.0,0.0,0.0,0.0,0.0,0.0,0.0,0.0,0.0,0.0,0.0,0.0,0.0,0.0,0.0,0.0,0.0,0.0,0.0,0.0,0.0,0.0,0.0,0.0,0.0,0.0,0.0,0.0,N
0.3333333333333333,0.2207207207207207,-0.013513513513513513,-0.3018018018018018,-0.6216216216216215,-0.8423423423423423,-0.8783783783783783,-0.7522522522522521,-0.572072072072072,-0.38738738738738737,-0.2162162162162162,-0.08558558558558559,-0.040540540540540536,-0.0045045045045045045,0.018018018018018018,0.03153153153153153,0.05405405405405405,0.08108108108108107,0.09459459459459459,0.09909909909909909,0.1081081081081081,0.1126126126126126,0.12162162162162161,0.14864864864864863,0.1306306306306306,0.13513513513513511,0.13963963963963963,0.1306306306306306,0.12612612612612611,0.12612612612612611,0.15315315315315314,0.14864864864864863,0.13513513513513511,0.13963963963963963,0.16216216216216214,0.16216216216216214,0.18018018018018017,0.18918918918918917,0.19369369369369369,0.19369369369369369,0.2162162162162162,0.23873873873873874,0.24324324324324323,0.24774774774774774,0.2657657657657657,0.27477477477477474,0.28378378378378377,0.28378378378378377,0.3018018018018018,0.2927927927927928,0.2882882882882883,0.31081081081081074,0.31081081081081074,0.3018018018018018,0.29729729729729726,0.3018018018018018,0.2882882882882883,0.3018018018018018,0.3063063063063063,0.31081081081081074,0.28378378378378377,0.2612612612612612,0.2612612612612612,0.2252252252252252,0.2207207207207207,0.2207207207207207,0.18018018018018017,0.15315315315315314,0.13513513513513511,0.1081081081081081,0.09909909909909909,0.08558558558558559,0.08558558558558559,0.07207207207207207,0.08108108108108107,0.08108108108108107,0.06756756756756756,0.04504504504504504,0.06306306306306306,0.05855855855855856,0.05855855855855856,0.04504504504504504,0.05855855855855856,0.040540540540540536,0.03153153153153153,0.04504504504504504,0.036036036036036036,0.03153153153153153,0.04504504504504504,0.04954954954954954,0.05405405405405405,0.05405405405405405,0.05855855855855856,0.05405405405405405,0.05405405405405405,0.06306306306306306,0.05855855855855856,0.05855855855855856,0.04504504504504504,0.06306306306306306,0.05405405405405405,0.06756756756756756,0.07657657657657657,0.04504504504504504,0.05855855855855856,0.05405405405405405,0.04954954954954954,0.04504504504504504,0.04954954954954954,0.04504504504504504,0.040540540540540536,0.04954954954954954,0.040540540540540536,0.036036036036036036,0.05855855855855856,0.05405405405405405,0.06306306306306306,0.05405405405405405,0.04504504504504504,0.036036036036036036,0.03153153153153153,0.040540540540540536,0.036036036036036036,0.027027027027027025,0.018018018018018018,0.027027027027027025,0.04504504504504504,0.027027027027027025,0.027027027027027025,0.013513513513513513,0.036036036036036036,0.03153153153153153,0.04954954954954954,0.04954954954954954,0.03153153153153153,0.040540540540540536,0.03153153153153153,0.036036036036036036,0.04954954954954954,0.04504504504504504,0.040540540540540536,0.040540540540540536,0.03153153153153153,0.009009009009009009,0.018018018018018018,0.018018018018018018,0.009009009009009009,0.009009009009009009,0.0045045045045045045,0.018018018018018018,0.009009009009009009,0.013513513513513513,0.013513513513513513,0.009009009009009009,0.0,0.0045045045045045045,0.009009009009009009,0.0045045045045045045,-0.0045045045045045045,0.0045045045045045045,-0.009009009009009009,-0.0045045045045045045,-0.0045045045045045045,-0.0045045045045045045,0.0,-0.0045045045045045045,0.009009009009009009,0.0,-0.009009009009009009,0.0045045045045045045,0.0,0.013513513513513513,0.013513513513513513,0.018018018018018018,0.0,0.0045045045045045045,0.0,0.027027027027027025,0.04504504504504504,0.1081081081081081,0.2072072072072072,0.2927927927927928,0.3333333333333333,0.2927927927927928,0.12612612612612611,-0.13963963963963963,-0.47297297297297297,-0.7432432432432431,-0.8648648648648648,-0.6846846846846847,-0.518018018018018,-0.3333333333333333,-0.17117117117117117,-0.08558558558558559,-0.05855855855855856,-0.04504504504504504,0.0,0.02252252252252252,0.040540540540540536,0.06306306306306306,0.07207207207207207,0.07657657657657657,0.1081081081081081,0.09909909909909909,0.08108108108108107,0.09009009009009009,0.1081081081081081,0.08108108108108107,0.09459459459459459,0.09459459459459459,0.12162162162162161,0.1126126126126126,0.12162162162162161,0.1306306306306306,0.12162162162162161,0.1306306306306306,0.14864864864864863,0.16216216216216214,0.0,0.0,0.0,0.0,0.0,0.0,0.0,0.0,0.0,0.0,0.0,0.0,0.0,0.0,0.0,0.0,0.0,0.0,0.0,0.0,0.0,0.0,0.0,0.0,0.0,0.0,0.0,0.0,0.0,0.0,0.0,0.0,0.0,0.0,0.0,0.0,0.0,0.0,0.0,0.0,0.0,0.0,0.0,0.0,0.0,0.0,0.0,0.0,0.0,0.0,0.0,0.0,0.0,0.0,0.0,0.0,0.0,0.0,0.0,0.0,0.0,0.0,0.0,0.0,0.0,0.0,0.0,0.0,0.0,0.0,0.0,0.0,0.0,0.0,0.0,0.0,0.0,0.0,0.0,0.0,0.0,0.0,N
0.2927927927927928,0.12612612612612611,-0.13963963963963963,-0.47297297297297297,-0.7432432432432431,-0.8648648648648648,-0.6846846846846847,-0.518018018018018,-0.3333333333333333,-0.17117117117117117,-0.08558558558558559,-0.05855855855855856,-0.04504504504504504,0.0,0.02252252252252252,0.040540540540540536,0.06306306306306306,0.07207207207207207,0.07657657657657657,0.1081081081081081,0.09909909909909909,0.08108108108108107,0.09009009009009009,0.1081081081081081,0.08108108108108107,0.09459459459459459,0.09459459459459459,0.12162162162162161,0.1126126126126126,0.12162162162162161,0.1306306306306306,0.12162162162162161,0.1306306306306306,0.14864864864864863,0.16216216216216214,0.16666666666666666,0.18468468468468466,0.16216216216216214,0.18468468468468466,0.19369369369369369,0.2207207207207207,0.2207207207207207,0.2207207207207207,0.2252252252252252,0.23423423423423423,0.2612612612612612,0.2567567567567567,0.2657657657657657,0.2657657657657657,0.2657657657657657,0.27927927927927926,0.28378378378378377,0.27477477477477474,0.2882882882882883,0.2927927927927928,0.27027027027027023,0.2657657657657657,0.27027027027027023,0.2612612612612612,0.2612612612612612,0.2567567567567567,0.2612612612612612,0.22972972972972971,0.2027027027027027,0.18018018018018017,0.14864864864864863,0.13513513513513511,0.11711711711711711,0.1081081081081081,0.08558558558558559,0.07657657657657657,0.07207207207207207,0.05855855855855856,0.04954954954954954,0.05855855855855856,0.05405405405405405,0.0,0.0,0.0,0.0,0.0,0.0,0.0,0.0,0.0,0.0,0.0,0.0,0.0,0.0,0.0,0.0,0.0,0.0,0.0,0.0,0.0,0.0,0.0,0.0,0.0,0.0,0.0,0.0,0.0,0.0,0.0,0.0,0.0,0.0,0.0,0.0,0.0,0.0,0.0,0.0,0.0,0.0,0.0,0.0,0.0,0.0,0.0,0.0,0.0,0.0,0.0,0.0,0.0,0.0,0.0,0.0,0.0,0.0,0.0,0.0,0.0,0.0,0.0,0.0,0.0,0.0,0.0,0.0,0.0,0.0,0.0,0.0,0.0,0.0,0.0,0.0,0.0,0.0,0.0,0.0,0.0,0.0,0.0,0.0,0.0,0.0,0.0,0.0,0.0,0.0,0.0,0.0,0.0,0.0,0.0,0.0,0.0,0.0,0.0,0.0,0.0,0.0,0.0,0.0,0.0,0.0,0.0,0.0,0.0,0.0,0.0,0.0,0.0,0.0,0.0,0.0,0.0,0.0,0.0,0.0,0.0,0.0,0.0,0.0,0.0,0.0,0.0,0.0,0.0,0.0,0.0,0.0,0.0,0.0,0.0,0.0,0.0,0.0,0.0,0.0,0.0,0.0,0.0,0.0,0.0,0.0,0.0,0.0,0.0,0.0,0.0,0.0,0.0,0.0,0.0,0.0,0.0,0.0,0.0,0.0,0.0,0.0,0.0,0.0,0.0,0.0,0.0,0.0,0.0,0.0,0.0,0.0,0.0,0.0,0.0,0.0,0.0,0.0,0.0,0.0,0.0,0.0,0.0,0.0,0.0,0.0,0.0,0.0,0.0,0.0,0.0,0.0,0.0,0.0,0.0,0.0,0.0,0.0,0.0,0.0,0.0,0.0,0.0,0.0,0.0,0.0,0.0,0.0,0.0,0.0,0.0,0.0,0.0,0.0,0.0,0.0,0.0,0.0,0.0,0.0,0.0,0.0,0.0,0.0,N
0.06944444444444443,0.05092592592592592,0.05092592592592592,0.05092592592592592,0.05092592592592592,0.05092592592592592,0.041666666666666664,0.041666666666666664,0.05555555555555555,0.046296296296296294,0.046296296296296294,0.046296296296296294,0.041666666666666664,0.037037037037037035,0.046296296296296294,0.032407407407407406,0.046296296296296294,0.046296296296296294,0.032407407407407406,0.023148148148148147,0.06018518518518518,0.046296296296296294,0.037037037037037035,0.027777777777777776,0.06018518518518518,0.037037037037037035,0.05555555555555555,0.046296296296296294,0.05092592592592592,0.06944444444444443,0.11574074074074073,0.2037037037037037,0.324074074074074,0.37037037037037035,0.3611111111111111,0.2361111111111111,0.0,-0.3055555555555555,-0.6574074074074073,-0.8749999999999999,-0.8842592592592592,-0.75,-0.5740740740740741,-0.375,-0.1898148148148148,-0.08333333333333333,-0.046296296296296294,-0.004629629629629629,0.013888888888888888,0.032407407407407406,0.046296296296296294,0.09259259259259259,0.08796296296296297,0.09722222222222221,0.10185185185185185,0.10185185185185185,0.1111111111111111,0.125,0.11574074074074073,0.11574074074074073,0.1111111111111111,0.13888888888888887,0.12962962962962962,0.13425925925925924,0.13888888888888887,0.125,0.12962962962962962,0.14814814814814814,0.14351851851851852,0.14814814814814814,0.15277777777777776,0.162037037037037,0.18055555555555555,0.18518518518518517,0.19907407407407407,0.21759259259259256,0.19907407407407407,0.22685185185185183,0.25,0.24537037037037038,0.25,0.26388888888888884,0.27777777777777773,0.2685185185185185,0.28703703703703703,0.28703703703703703,0.27777777777777773,0.29166666666666663,0.29166666666666663,0.28703703703703703,0.29166666666666663,0.28703703703703703,0.27314814814814814,0.2824074074074074,0.2685185185185185,0.25925925925925924,0.25462962962962965,0.2222222222222222,0.2037037037037037,0.19907407407407407,0.16666666666666666,0.14351851851851852,0.125,0.10185185185185185,0.08333333333333333,0.0787037037037037,0.05555555555555555,0.06018518518518518,0.037037037037037035,0.05092592592592592,0.041666666666666664,0.046296296296296294,0.037037037037037035,0.032407407407407406,0.027777777777777776,0.032407407407407406,0.032407407407407406,0.041666666666666664,0.027777777777777776,0.018518518518518517,0.032407407407407406,0.023148148148148147,0.013888888888888888,0.032407407407407406,0.032407407407407406,0.032407407407407406,0.041666666666666664,0.037037037037037035,0.041666666666666664,0.041666666666666664,0.05555555555555555,0.046296296296296294,0.046296296296296294,0.05555555555555555,0.046296296296296294,0.05092592592592592,0.041666666666666664,0.05092592592592592,0.05092592592592592,0.06018518518518518,0.046296296296296294,0.041666666666666664,0.037037037037037035,0.05555555555555555,0.027777777777777776,0.037037037037037035,0.046296296296296294,0.041666666666666664,0.05092592592592592,0.06481481481481481,0.046296296296296294,0.046296296296296294,0.041666666666666664,0.037037037037037035,0.032407407407407406,0.032407407407407406,0.046296296296296294,0.027777777777777776,0.032407407407407406,0.037037037037037035,0.032407407407407406,0.037037037037037035,0.032407407407407406,0.037037037037037035,0.032407407407407406,0.041666666666666664,0.05092592592592592,0.037037037037037035,0.041666666666666664,0.05555555555555555,0.06944444444444443,0.06018518518518518,0.05092592592592592,0.0787037037037037,0.06018518518518518,0.0787037037037037,0.06018518518518518,0.06944444444444443,0.05555555555555555,0.041666666666666664,0.046296296296296294,0.041666666666666664,0.046296296296296294,0.046296296296296294,0.046296296296296294,0.041666666666666664,0.027777777777777776,0.032407407407407406,0.032407407407407406,0.027777777777777776,0.037037037037037035,0.032407407407407406,0.023148148148148147,0.032407407407407406,0.027777777777777776,0.027777777777777776,0.037037037037037035,0.032407407407407406,0.027777777777777776,0.037037037037037035,0.032407407407407406,0.046296296296296294,0.05092592592592592,0.05555555555555555,0.037037037037037035,0.023148148148148147,0.041666666666666664,0.05555555555555555,0.041666666666666664,0.041666666666666664,0.06481481481481481,0.05555555555555555,0.05092592592592592,0.05555555555555555,0.11574074074074073,0.20833333333333331,0.29166666666666663,0.3842592592592592,0.41666666666666663,0.3379629629629629,0.0,0.0,0.0,0.0,0.0,0.0,0.0,0.0,0.0,0.0,0.0,0.0,0.0,0.0,0.0,0.0,0.0,0.0,0.0,0.0,0.0,0.0,0.0,0.0,0.0,0.0,0.0,0.0,0.0,0.0,0.0,0.0,0.0,0.0,0.0,0.0,0.0,0.0,0.0,0.0,0.0,0.0,0.0,0.0,0.0,0.0,0.0,0.0,0.0,0.0,0.0,0.0,0.0,0.0,0.0,0.0,0.0,0.0,0.0,0.0,0.0,0.0,0.0,0.0,0.0,0.0,0.0,0.0,0.0,0.0,0.0,0.0,0.0,0.0,0.0,0.0,0.0,0.0,0.0,0.0,N
0.3379629629629629,0.14814814814814814,-0.12037037037037036,-0.4629629629629629,-0.7453703703703703,-0.8379629629629629,-0.736111111111111,-0.5555555555555555,-0.35185185185185186,-0.17129629629629628,-0.05555555555555555,-0.018518518518518517,0.004629629629629629,0.018518518518518517,0.046296296296296294,0.06944444444444443,0.09259259259259259,0.10648148148148148,0.10185185185185185,0.11574074074074073,0.1111111111111111,0.1111111111111111,0.125,0.11574074074074073,0.125,0.125,0.13888888888888887,0.14351851851851852,0.14814814814814814,0.13425925925925924,0.1574074074074074,0.13425925925925924,0.14814814814814814,0.14814814814814814,0.162037037037037,0.16666666666666666,0.18518518518518517,0.18518518518518517,0.1898148148148148,0.2222222222222222,0.2361111111111111,0.2361111111111111,0.24074074074074073,0.25,0.25462962962962965,0.25,0.27777777777777773,0.28703703703703703,0.29166666666666663,0.28703703703703703,0.28703703703703703,0.26388888888888884,0.29166666666666663,0.28703703703703703,0.2824074074074074,0.27314814814814814,0.29166666666666663,0.27777777777777773,0.2685185185185185,0.26388888888888884,0.25925925925925924,0.25,0.22685185185185183,0.19907407407407407,0.18055555555555555,0.1574074074074074,0.14814814814814814,0.125,0.09722222222222221,0.1111111111111111,0.09259259259259259,0.07407407407407407,0.06944444444444443,0.037037037037037035,0.05555555555555555,0.046296296296296294,0.05555555555555555,0.041666666666666664,0.041666666666666664,0.041666666666666664,0.046296296296296294,0.032407407407407406,0.032407407407407406,0.037037037037037035,0.041666666666666664,0.032407407407407406,0.032407407407407406,0.032407407407407406,0.037037037037037035,0.027777777777777776,0.037037037037037035,0.041666666666666664,0.037037037037037035,0.046296296296296294,0.046296296296296294,0.05555555555555555,0.05555555555555555,0.06018518518518518,0.046296296296296294,0.037037037037037035,0.05092592592592592,0.05092592592592592,0.046296296296296294,0.046296296296296294,0.037037037037037035,0.032407407407407406,0.05092592592592592,0.041666666666666664,0.032407407407407406,0.037037037037037035,0.041666666666666664,0.037037037037037035,0.027777777777777776,0.041666666666666664,0.037037037037037035,0.027777777777777776,0.009259259259259259,0.037037037037037035,0.018518518518518517,0.032407407407407406,0.018518518518518517,0.013888888888888888,0.004629629629629629,0.023148148148148147,0.023148148148148147,0.027777777777777776,0.013888888888888888,0.032407407407407406,0.018518518518518517,0.032407407407407406,0.032407407407407406,0.032407407407407406,0.013888888888888888,0.046296296296296294,0.041666666666666664,0.037037037037037035,0.023148148148148147,0.023148148148148147,0.046296296296296294,0.046296296296296294,0.046296296296296294,0.06481481481481481,0.06481481481481481,0.05092592592592592,0.037037037037037035,0.037037037037037035,0.037037037037037035,0.023148148148148147,0.032407407407407406,0.032407407407407406,0.032407407407407406,0.032407407407407406,0.013888888888888888,0.018518518518518517,0.018518518518518517,0.018518518518518517,0.009259259259259259,0.009259259259259259,0.013888888888888888,0.013888888888888888,0.013888888888888888,0.032407407407407406,0.009259259259259259,0.018518518518518517,0.018518518518518517,0.013888888888888888,0.009259259259259259,0.013888888888888888,0.032407407407407406,0.041666666666666664,0.023148148148148147,0.023148148148148147,0.018518518518518517,0.023148148148148147,0.018518518518518517,0.037037037037037035,0.037037037037037035,0.018518518518518517,0.041666666666666664,0.05555555555555555,0.12037037037037036,0.20833333333333331,0.3101851851851852,0.375,0.34259259259259256,0.26388888888888884,0.018518518518518517,-0.25925925925925924,-0.5555555555555555,-0.7685185185185184,-0.8055555555555555,-0.648148148148148,-0.4722222222222222,-0.3055555555555555,-0.13888888888888887,-0.037037037037037035,-0.013888888888888888,0.004629629629629629,0.027777777777777776,0.05555555555555555,0.06481481481481481,0.08796296296296297,0.09722222222222221,0.09722222222222221,0.10185185185185185,0.1111111111111111,0.1111111111111111,0.1111111111111111,0.1111111111111111,0.12037037037037036,0.1111111111111111,0.11574074074074073,0.125,0.13425925925925924,0.14814814814814814,0.13888888888888887,0.13425925925925924,0.14351851851851852,0.15277777777777776,0.17129629629629628,0.0,0.0,0.0,0.0,0.0,0.0,0.0,0.0,0.0,0.0,0.0,0.0,0.0,0.0,0.0,0.0,0.0,0.0,0.0,0.0,0.0,0.0,0.0,0.0,0.0,0.0,0.0,0.0,0.0,0.0,0.0,0.0,0.0,0.0,0.0,0.0,0.0,0.0,0.0,0.0,0.0,0.0,0.0,0.0,0.0,0.0,0.0,0.0,0.0,0.0,0.0,0.0,0.0,0.0,0.0,0.0,0.0,0.0,0.0,0.0,0.0,0.0,0.0,0.0,0.0,0.0,0.0,0.0,0.0,0.0,0.0,0.0,0.0,0.0,0.0,0.0,0.0,0.0,0.0,0.0,N
0.26388888888888884,0.018518518518518517,-0.25925925925925924,-0.5555555555555555,-0.7685185185185184,-0.8055555555555555,-0.648148148148148,-0.4722222222222222,-0.3055555555555555,-0.13888888888888887,-0.037037037037037035,-0.013888888888888888,0.004629629629629629,0.027777777777777776,0.05555555555555555,0.06481481481481481,0.08796296296296297,0.09722222222222221,0.09722222222222221,0.10185185185185185,0.1111111111111111,0.1111111111111111,0.1111111111111111,0.1111111111111111,0.12037037037037036,0.1111111111111111,0.11574074074074073,0.125,0.13425925925925924,0.14814814814814814,0.13888888888888887,0.13425925925925924,0.14351851851851852,0.15277777777777776,0.17129629629629628,0.17129629629629628,0.1898148148148148,0.2037037037037037,0.19907407407407407,0.21759259259259256,0.22685185185185183,0.21759259259259256,0.24074074074074073,0.25,0.24537037037037038,0.25462962962962965,0.25462962962962965,0.27314814814814814,0.29166666666666663,0.3055555555555555,0.3101851851851852,0.3055555555555555,0.30092592592592593,0.3055555555555555,0.3148148148148148,0.30092592592592593,0.29166666666666663,0.30092592592592593,0.2962962962962963,0.2962962962962963,0.25925925925925924,0.2824074074074074,0.24537037037037038,0.22685185185185183,0.21759259259259256,0.2037037037037037,0.162037037037037,0.15277777777777776,0.13888888888888887,0.11574074074074073,0.11574074074074073,0.125,0.10648148148148148,0.09722222222222221,0.08796296296296297,0.08333333333333333,0.06018518518518518,0.07407407407407407,0.07407407407407407,0.05555555555555555,0.05555555555555555,0.07407407407407407,0.06481481481481481,0.05555555555555555,0.06018518518518518,0.07407407407407407,0.06481481481481481,0.07407407407407407,0.0787037037037037,0.06481481481481481,0.07407407407407407,0.0787037037037037,0.06944444444444443,0.08333333333333333,0.0787037037037037,0.07407407407407407,0.08333333333333333,0.0787037037037037,0.07407407407407407,0.09259259259259259,0.08333333333333333,0.10185185185185185,0.08333333333333333,0.0787037037037037,0.07407407407407407,0.08796296296296297,0.09259259259259259,0.06481481481481481,0.08333333333333333,0.08796296296296297,0.09722222222222221,0.0787037037037037,0.08796296296296297,0.0787037037037037,0.0787037037037037,0.08333333333333333,0.06944444444444443,0.06481481481481481,0.06018518518518518,0.06481481481481481,0.06018518518518518,0.06018518518518518,0.08333333333333333,0.05555555555555555,0.06481481481481481,0.06944444444444443,0.06018518518518518,0.06481481481481481,0.08333333333333333,0.06944444444444443,0.08333333333333333,0.06481481481481481,0.08796296296296297,0.06944444444444443,0.08333333333333333,0.07407407407407407,0.06944444444444443,0.0787037037037037,0.08333333333333333,0.0787037037037037,0.08796296296296297,0.08333333333333333,0.10185185185185185,0.08333333333333333,0.06481481481481481,0.06944444444444443,0.0787037037037037,0.06944444444444443,0.06481481481481481,0.046296296296296294,0.046296296296296294,0.05555555555555555,0.06481481481481481,0.032407407407407406,0.027777777777777776,0.046296296296296294,0.046296296296296294,0.037037037037037035,0.032407407407407406,0.027777777777777776,0.013888888888888888,0.027777777777777776,0.05092592592592592,0.041666666666666664,0.037037037037037035,0.041666666666666664,0.032407407407407406,0.041666666666666664,0.032407407407407406,0.027777777777777776,0.046296296296296294,0.032407407407407406,0.032407407407407406,0.023148148148148147,0.018518518518518517,0.027777777777777776,0.041666666666666664,0.032407407407407406,0.041666666666666664,0.09259259259259259,0.15277777777777776,0.2361111111111111,0.3055555555555555,0.3379629629629629,0.2824074074074074,0.08796296296296297,-0.17592592592592593,-0.5046296296296297,-0.787037037037037,-0.8749999999999999,-0.8009259259259258,-0.6388888888888888,-0.45370370370370366,-0.26388888888888884,-0.1111111111111111,-0.037037037037037035,-0.009259259259259259,0.0,0.027777777777777776,0.046296296296296294,0.06481481481481481,0.10185185185185185,0.10648148148148148,0.10648148148148148,0.1111111111111111,0.10185185185185185,0.10185185185185185,0.12037037037037036,0.11574074074074073,0.1111111111111111,0.11574074074074073,0.125,0.13888888888888887,0.13425925925925924,0.13888888888888887,0.15277777777777776,0.14351851851851852,0.15277777777777776,0.1574074074074074,0.18055555555555555,0.0,0.0,0.0,0.0,0.0,0.0,0.0,0.0,0.0,0.0,0.0,0.0,0.0,0.0,0.0,0.0,0.0,0.0,0.0,0.0,0.0,0.0,0.0,0.0,0.0,0.0,0.0,0.0,0.0,0.0,0.0,0.0,0.0,0.0,0.0,0.0,0.0,0.0,0.0,0.0,0.0,0.0,0.0,0.0,0.0,0.0,0.0,0.0,0.0,0.0,0.0,0.0,0.0,0.0,0.0,0.0,0.0,0.0,0.0,0.0,0.0,0.0,0.0,0.0,0.0,0.0,0.0,0.0,0.0,0.0,0.0,0.0,0.0,0.0,0.0,0.0,0.0,0.0,0.0,0.0,N
0.2824074074074074,0.08796296296296297,-0.17592592592592593,-0.5046296296296297,-0.787037037037037,-0.8749999999999999,-0.8009259259259258,-0.6388888888888888,-0.45370370370370366,-0.26388888888888884,-0.1111111111111111,-0.037037037037037035,-0.009259259259259259,0.0,0.027777777777777776,0.046296296296296294,0.06481481481481481,0.10185185185185185,0.10648148148148148,0.10648148148148148,0.1111111111111111,0.10185185185185185,0.10185185185185185,0.12037037037037036,0.11574074074074073,0.1111111111111111,0.11574074074074073,0.125,0.13888888888888887,0.13425925925925924,0.13888888888888887,0.15277777777777776,0.14351851851851852,0.15277777777777776,0.1574074074074074,0.18055555555555555,0.1898148148148148,0.21759259259259256,0.2037037037037037,0.20833333333333331,0.23148148148148145,0.22685185185185183,0.2361111111111111,0.24074074074074073,0.25462962962962965,0.27314814814814814,0.2824074074074074,0.29166666666666663,0.29166666666666663,0.3055555555555555,0.3055555555555555,0.3194444444444444,0.3148148148148148,0.3333333333333333,0.3194444444444444,0.3379629629629629,0.3194444444444444,0.32870370370370366,0.2824074074074074,0.2962962962962963,0.28703703703703703,0.2685185185185185,0.25462962962962965,0.24074074074074073,0.21759259259259256,0.1898148148148148,0.17129629629629628,0.15277777777777776,0.13888888888888887,0.12037037037037036,0.10185185185185185,0.09259259259259259,0.07407407407407407,0.08333333333333333,0.06018518518518518,0.07407407407407407,0.06018518518518518,0.06018518518518518,0.05092592592592592,0.046296296296296294,0.05092592592592592,0.032407407407407406,0.041666666666666664,0.05092592592592592,0.05092592592592592,0.046296296296296294,0.06018518518518518,0.06018518518518518,0.046296296296296294,0.06481481481481481,0.06481481481481481,0.0787037037037037,0.06018518518518518,0.07407407407407407,0.07407407407407407,0.07407407407407407,0.07407407407407407,0.07407407407407407,0.06481481481481481,0.0787037037037037,0.06481481481481481,0.07407407407407407,0.0787037037037037,0.08333333333333333,0.0787037037037037,0.08796296296296297,0.0787037037037037,0.08333333333333333,0.07407407407407407,0.06944444444444443,0.08333333333333333,0.09259259259259259,0.0787037037037037,0.07407407407407407,0.09259259259259259,0.08333333333333333,0.0787037037037037,0.08796296296296297,0.08333333333333333,0.06944444444444443,0.07407407407407407,0.08333333333333333,0.07407407407407407,0.0787037037037037,0.06944444444444443,0.08333333333333333,0.08333333333333333,0.06018518518518518,0.06944444444444443,0.07407407407407407,0.08796296296296297,0.08796296296296297,0.08333333333333333,0.08796296296296297,0.0787037037037037,0.08333333333333333,0.0787037037037037,0.08333333333333333,0.10648148148148148,0.09259259259259259,0.09259259259259259,0.08333333333333333,0.09722222222222221,0.08333333333333333,0.06481481481481481,0.06944444444444443,0.05555555555555555,0.06481481481481481,0.05555555555555555,0.05555555555555555,0.05555555555555555,0.06481481481481481,0.05555555555555555,0.037037037037037035,0.05092592592592592,0.05555555555555555,0.041666666666666664,0.032407407407407406,0.05555555555555555,0.046296296296296294,0.05092592592592592,0.032407407407407406,0.06018518518518518,0.041666666666666664,0.041666666666666664,0.046296296296296294,0.05555555555555555,0.05092592592592592,0.05092592592592592,0.06018518518518518,0.06018518518518518,0.06481481481481481,0.06018518518518518,0.06018518518518518,0.05555555555555555,0.05555555555555555,0.0787037037037037,0.10648148148148148,0.162037037037037,0.25462962962962965,0.3333333333333333,0.3796296296296296,0.3333333333333333,0.17129629629629628,-0.10648148148148148,-0.4351851851851851,-0.7175925925925926,-0.861111111111111,-0.8240740740740741,-0.6527777777777777,-0.47685185185185186,-0.2962962962962963,-0.13425925925925924,-0.032407407407407406,-0.009259259259259259,0.009259259259259259,0.032407407407407406,0.05092592592592592,0.0787037037037037,0.10648148148148148,0.125,0.10648148148148148,0.125,0.12962962962962962,0.125,0.125,0.125,0.12962962962962962,0.14814814814814814,0.13425925925925924,0.13425925925925924,0.12962962962962962,0.1574074074074074,0.14814814814814814,0.15277777777777776,0.1574074074074074,0.162037037037037,0.17129629629629628,0.17129629629629628,0.18518518518518517,0.0,0.0,0.0,0.0,0.0,0.0,0.0,0.0,0.0,0.0,0.0,0.0,0.0,0.0,0.0,0.0,0.0,0.0,0.0,0.0,0.0,0.0,0.0,0.0,0.0,0.0,0.0,0.0,0.0,0.0,0.0,0.0,0.0,0.0,0.0,0.0,0.0,0.0,0.0,0.0,0.0,0.0,0.0,0.0,0.0,0.0,0.0,0.0,0.0,0.0,0.0,0.0,0.0,0.0,0.0,0.0,0.0,0.0,0.0,0.0,0.0,0.0,0.0,0.0,0.0,0.0,0.0,0.0,0.0,0.0,0.0,0.0,0.0,0.0,0.0,0.0,0.0,0.0,0.0,0.0,N
