0.386771007442552,0.3912384343327666,0.3962507653361037,0.40017070590604775,0.40314136677726786,0.40480867628686634,0.4051428190727115,0.40440276046207074,0.40245184326356453,0.4006289387160199,0.39926773847946395,0.3984334254251869,0.3979703268079874,0.3970274893281542,0.3961392472339179,0.39504220284553565,0.3935311663203699,0.39153789315390397,0.3885902491040084,0.38570108956306437,0.3830798014057976,0.3808127038738857,0.3788560555786471,0.3765132512231477,0.3743371221494452,0.37206265305105446,0.36940551282603823,0.36617421800339023,0.36182340617755426,0.3572663273296471,0.3527905552819673,0.3486613611029748,0.34504432466836854,0.34142632425159297,0.33822205287239215,0.3348492159655546,0.33042136785785886,0.32391443133334685,0.313928352566013,0.3004845403547512,0.28346670622041154,0.26333423642628895,0.24116146786043716,0.21818667465552077,0.19681164159425957,0.17886483624620753,0.16578611860419926,0.15840850438752743,0.15659593316163653,0.16013707433576435,0.16777404281114422,0.1778465629217739,0.18862677066703942,0.19835301083979778,0.20646049042735717,0.21248530759242776,0.2164664028180523,0.2188450369465514,0.21996778473446657,0.22099540050873298,0.2224287586111679,0.22445519889311297,0.22696604898293496,0.22931838418102024,0.23160110822924604,0.23345852565501907,0.2346419984963901,0.23508706101931853,0.23458327498752557,0.23387709684979832,0.23325799982552453,0.23291005740626383,0.23286947507042619,0.23268989168524526,0.23262425010406515,0.23240922465933286,0.23179483263891903,0.23065188912153384,0.22870791518310477,0.2266696599961966,0.2248933051389944,0.22369211197471828,0.22321824266516915,0.22303633727334654,0.22312716387983994,0.22268851115527544,0.2206324681002501,0.2157845962088045,0.20683144490107894,0.19359506735023135,0.1760893606985532,0.15500103080946667,0.13167813072983087,0.10775427035056517,0.0856359061286673,0.06732016133731654,0.05434924690588881,0.04757166525085724,0.04688185365431689,0.05174162356752692,0.060795513240506784,0.07232469030830126,0.08456949053997134,0.09585503034227934,0.1053996090678653,0.11275216316944248,0.11798462181010788,0.12156731582908543,0.0,0.0,0.0,0.0,0.0,0.0,0.0,0.0,0.0,0.0,0.0,0.0,0.0,0.0,0.0,0.0,0.0,0.0,0.0,0.0,0.0,0.0,0.0,0.0,0.0,0.0,0.0,0.0,0.0,0.0,0.0,0.0,0.0,0.0,0.0,0.0,0.0,0.0,0.0,0.0,0.0,0.0,0.0,0.0,0.0,0.0,0.0,0.0,0.0,0.0,0.0,0.0,0.0,0.0,0.0,0.0,0.0,0.0,0.0,0.0,0.0,0.0,0.0,0.0,0.0,0.0,0.0,0.0,0.0,0.0,0.0,0.0,0.0,0.0,0.0,0.0,0.0,0.0,0.0,0.0,0.0,0.0,0.0,0.0,0.0,0.0,0.0,0.0,0.0,0.0,0.0,0.0,0.0,0.0,0.0,0.0,0.0,0.0,0.0,0.0,0.0,0.0,0.0,0.0,0.0,0.0,0.0,0.0,0.0,0.0,0.0,0.0,0.0,0.0,0.0,0.0,0.0,0.0,0.0,0.0,0.0,0.0,0.0,0.0,0.0,0.0,0.0,0.0,0.0,0.0,0.0,0.0,0.0,0.0,0.0,0.0,0.0,0.0,0.0,0.0,0.0,0.0,0.0,0.0,0.0,0.0,0.0,0.0,0.0,0.0,0.0,0.0,0.0,0.0,0.0,0.0,0.0,0.0,0.0,0.0,0.0,0.0,0.0,0.0,0.0,0.0,0.0,0.0,0.0,0.0,0.0,0.0,0.0,0.0,0.0,0.0,0.0,0.0,0.0,0.0,0.0,0.0,0.0,0.0,0.0,0.0,0.0,0.0,0.0,0.0,0.0,0.0
0.1778465629217739,0.18862677066703942,0.19835301083979778,0.20646049042735717,0.21248530759242776,0.2164664028180523,0.2188450369465514,0.21996778473446657,0.22099540050873298,0.2224287586111679,0.22445519889311297,0.22696604898293496,0.22931838418102024,0.23160110822924604,0.23345852565501907,0.2346419984963901,0.23508706101931853,0.23458327498752557,0.23387709684979832,0.23325799982552453,0.23291005740626383,0.23286947507042619,0.23268989168524526,0.23262425010406515,0.23240922465933286,0.23179483263891903,0.23065188912153384,0.22870791518310477,0.2266696599961966,0.2248933051389944,0.22369211197471828,0.22321824266516915,0.22303633727334654,0.22312716387983994,0.22268851115527544,0.2206324681002501,0.2157845962088045,0.20683144490107894,0.19359506735023135,0.1760893606985532,0.15500103080946667,0.13167813072983087,0.10775427035056517,0.0856359061286673,0.06732016133731654,0.05434924690588881,0.04757166525085724,0.04688185365431689,0.05174162356752692,0.060795513240506784,0.07232469030830126,0.08456949053997134,0.09585503034227934,0.1053996090678653,0.11275216316944248,0.11798462181010788,0.12156731582908543,0.12397470573874908,0.12616989377533525,0.12866588150725902,0.13168703337892315,0.13517176096082845,0.13863605048203784,0.14200777780399806,0.14495083969789996,0.14723045913857205,0.14877620609257142,0.14946688776245717,0.14982743717819008,0.15012133746965883,0.15054649167863063,0.1511888707536561,0.1517920917617716,0.15251874034920038,0.15318111678772225,0.15358397984314526,0.15360153541474084,0.15301129894880675,0.15223338637970762,0.15147914530502615,0.15095290204620587,0.15077977921897046,0.15073223297876792,0.15088874319017362,0.15085412018830516,0.15007603536494252,0.14795802302320002,0.14379837142733823,0.1375865511873931,0.12934671842882542,0.11942724949014859,0.10848499313291604,0.0972720104250237,0.08693661940410981,0.07838518606929025,0.07229400750080321,0.06901196324263206,0.06845910721244641,0.07035687608696438,0.07409871429150679,0.07893255181459263,0.08409269521693653,0.08882917839064873,0.0928050124010666,0.09581187539382828,0.09786895035358101,0.09917342719124099,0.09989897881538114,0.0,0.0,0.0,0.0,0.0,0.0,0.0,0.0,0.0,0.0,0.0,0.0,0.0,0.0,0.0,0.0,0.0,0.0,0.0,0.0,0.0,0.0,0.0,0.0,0.0,0.0,0.0,0.0,0.0,0.0,0.0,0.0,0.0,0.0,0.0,0.0,0.0,0.0,0.0,0.0,0.0,0.0,0.0,0.0,0.0,0.0,0.0,0.0,0.0,0.0,0.0,0.0,0.0,0.0,0.0,0.0,0.0,0.0,0.0,0.0,0.0,0.0,0.0,0.0,0.0,0.0,0.0,0.0,0.0,0.0,0.0,0.0,0.0,0.0,0.0,0.0,0.0,0.0,0.0,0.0,0.0,0.0,0.0,0.0,0.0,0.0,0.0,0.0,0.0,0.0,0.0,0.0,0.0,0.0,0.0,0.0,0.0,0.0,0.0,0.0,0.0,0.0,0.0,0.0,0.0,0.0,0.0,0.0,0.0,0.0,0.0,0.0,0.0,0.0,0.0,0.0,0.0,0.0,0.0,0.0,0.0,0.0,0.0,0.0,0.0,0.0,0.0,0.0,0.0,0.0,0.0,0.0,0.0,0.0,0.0,0.0,0.0,0.0,0.0,0.0,0.0,0.0,0.0,0.0,0.0,0.0,0.0,0.0,0.0,0.0,0.0,0.0,0.0,0.0,0.0,0.0,0.0,0.0,0.0,0.0,0.0,0.0,0.0,0.0,0.0,0.0,0.0,0.0,0.0,0.0,0.0,0.0,0.0,0.0,0.0,0.0,0.0,0.0,0.0,0.0,0.0,0.0,0.0,0.0,0.0,0.0,0.0,0.0,0.0,0.0,0.0,0.0
0.08456949053997134,0.09585503034227934,0.1053996090678653,0.11275216316944248,0.11798462181010788,0.12156731582908543,0.12397470573874908,0.12616989377533525,0.12866588150725902,0.13168703337892315,0.13517176096082845,0.13863605048203784,0.14200777780399806,0.14495083969789996,0.14723045913857205,0.14877620609257142,0.14946688776245717,0.14982743717819008,0.15012133746965883,0.15054649167863063,0.1511888707536561,0.1517920917617716,0.15251874034920038,0.15318111678772225,0.15358397984314526,0.15360153541474084,0.15301129894880675,0.15223338637970762,0.15147914530502615,0.15095290204620587,0.15077977921897046,0.15073223297876792,0.15088874319017362,0.15085412018830516,0.15007603536494252,0.14795802302320002,0.14379837142733823,0.1375865511873931,0.12934671842882542,0.11942724949014859,0.10848499313291604,0.0972720104250237,0.08693661940410981,0.07838518606929025,0.07229400750080321,0.06901196324263206,0.06845910721244641,0.07035687608696438,0.07409871429150679,0.07893255181459263,0.08409269521693653,0.08882917839064873,0.0928050124010666,0.09581187539382828,0.09786895035358101,0.09917342719124099,0.09989897881538114,0.10051524243538365,0.10126364663751922,0.1022568432445402,0.10347433903416393,0.10466038119730474,0.10582072559038866,0.10679260284589782,0.10745714511359604,0.10777525087708685,0.10765224165687517,0.10739644238526451,0.10714745943229384,0.10700839553470122,0.1070184602259642,0.10699957567565743,0.10705019947949075,0.10703623229264568,0.10681033888286884,0.10626166957484157,0.10520864797818556,0.10390054290989571,0.10246106932859118,0.10103341863361226,0.09973858169568058,0.09848944191473999,0.09743180468373579,0.09639930758854333,0.09510838804982431,0.09321549381651958,0.09025785825548985,0.0862021154930857,0.08099459952312302,0.07477699265106726,0.06789657201762643,0.06077949323584106,0.054165199444885376,0.04864716970934958,0.044694149120388306,0.04257765021873329,0.042290436856853256,0.04370706135065384,0.046430742523576006,0.04994071198634512,0.053691399204514656,0.05714436983188942,0.06006322811605995,0.06228746631618967,0.0638218510244973,0.06480514819029602,0.06537030182987016,0.065865622334032,0.0,0.0,0.0,0.0,0.0,0.0,0.0,0.0,0.0,0.0,0.0,0.0,0.0,0.0,0.0,0.0,0.0,0.0,0.0,0.0,0.0,0.0,0.0,0.0,0.0,0.0,0.0,0.0,0.0,0.0,0.0,0.0,0.0,0.0,0.0,0.0,0.0,0.0,0.0,0.0,0.0,0.0,0.0,0.0,0.0,0.0,0.0,0.0,0.0,0.0,0.0,0.0,0.0,0.0,0.0,0.0,0.0,0.0,0.0,0.0,0.0,0.0,0.0,0.0,0.0,0.0,0.0,0.0,0.0,0.0,0.0,0.0,0.0,0.0,0.0,0.0,0.0,0.0,0.0,0.0,0.0,0.0,0.0,0.0,0.0,0.0,0.0,0.0,0.0,0.0,0.0,0.0,0.0,0.0,0.0,0.0,0.0,0.0,0.0,0.0,0.0,0.0,0.0,0.0,0.0,0.0,0.0,0.0,0.0,0.0,0.0,0.0,0.0,0.0,0.0,0.0,0.0,0.0,0.0,0.0,0.0,0.0,0.0,0.0,0.0,0.0,0.0,0.0,0.0,0.0,0.0,0.0,0.0,0.0,0.0,0.0,0.0,0.0,0.0,0.0,0.0,0.0,0.0,0.0,0.0,0.0,0.0,0.0,0.0,0.0,0.0,0.0,0.0,0.0,0.0,0.0,0.0,0.0,0.0,0.0,0.0,0.0,0.0,0.0,0.0,0.0,0.0,0.0,0.0,0.0,0.0,0.0,0.0,0.0,0.0,0.0,0.0,0.0,0.0,0.0,0.0,0.0,0.0,0.0,0.0,0.0,0.0,0.0,0.0,0.0,0.0,0.0
-0.08495893959391823,-0.09148732593086271,-0.09559081376340886,-0.09787522291196213,-0.09914957369001164,-0.10015769667302694,-0.1014162586205347,-0.10319807364752516,-0.10534562374653235,-0.10758966473305957,-0.1096417471630291,-0.1113451913102067,-0.11282601255502384,-0.11429422211969859,-0.11614440432802961,-0.11872578480557516,-0.12216230590127206,-0.12628512010108442,-0.13039631129860166,-0.13356015015876876,-0.13472788401428165,-0.13297942049233744,-0.12781911240178334,-0.11911756434736016,-0.10735837006865098,-0.0934850152147989,-0.0787096702822643,-0.06426945218521982,-0.05118343850030938,-0.04011656831435763,-0.03127804113006937,-0.02443992007219118,-0.018981083439026745,-0.014256346546271198,-0.009650023539117175,-0.004748477588869323,0.000589826223922728,0.006340033382465627,0.012114497940572877,0.017475568730048074,0.022042574438876333,0.025619572520036635,0.028383426672730472,0.03051121445878174,0.032334686022102134,0.03417574142674369,0.03624849352992821,0.038718646766491026,0.04133119719482008,0.04377935473224019,0.045717723289949046,0.04687741453981979,0.047269537875934145,0.046836708099315,0.045808592991524184,0.04449462346542744,0.04318124670469312,0.04217384294173064,0.04136613952727893,0.04069156193166725,0.040068135311818145,0.03948507886956645,0.03918923689360773,0.03925756165423274,0.03997224642141041,0.041551279917706435,0.04400401986141023,0.047156167831527394,0.050171044915706536,0.052094703850488915,0.05186400807563908,0.04852296085325401,0.04158569001348038,0.030738245085560372,0.016416070932222415,-0.00041105964141028727,-0.018410840343611384,-0.036069219545161,-0.05220105877757497,-0.06592143743622626,-0.07688932681324527,-0.08534464154047679,-0.09201473822344844,-0.09791017027403992,-0.10402113906640878,-0.11106220390985354,-0.11927169839531612,-0.12836047796651895,-0.13746971170578454,-0.1454282360347639,-0.1510046522225966,-0.15319875525015547,-0.15154262343543295,-0.14602825838764782,-0.13727496622634772,-0.12634198655594236,-0.11451005653506835,-0.10311515227917321,-0.09309871224090935,-0.08510272288523822,-0.07937418935426892,-0.07582135781998123,-0.07421115064350745,-0.07400216916949853,-0.07471056175209366,-0.07589370772968512,-0.07718117119614548,-0.07832825213093618,0.0,0.0,0.0,0.0,0.0,0.0,0.0,0.0,0.0,0.0,0.0,0.0,0.0,0.0,0.0,0.0,0.0,0.0,0.0,0.0,0.0,0.0,0.0,0.0,0.0,0.0,0.0,0.0,0.0,0.0,0.0,0.0,0.0,0.0,0.0,0.0,0.0,0.0,0.0,0.0,0.0,0.0,0.0,0.0,0.0,0.0,0.0,0.0,0.0,0.0,0.0,0.0,0.0,0.0,0.0,0.0,0.0,0.0,0.0,0.0,0.0,0.0,0.0,0.0,0.0,0.0,0.0,0.0,0.0,0.0,0.0,0.0,0.0,0.0,0.0,0.0,0.0,0.0,0.0,0.0,0.0,0.0,0.0,0.0,0.0,0.0,0.0,0.0,0.0,0.0,0.0,0.0,0.0,0.0,0.0,0.0,0.0,0.0,0.0,0.0,0.0,0.0,0.0,0.0,0.0,0.0,0.0,0.0,0.0,0.0,0.0,0.0,0.0,0.0,0.0,0.0,0.0,0.0,0.0,0.0,0.0,0.0,0.0,0.0,0.0,0.0,0.0,0.0,0.0,0.0,0.0,0.0,0.0,0.0,0.0,0.0,0.0,0.0,0.0,0.0,0.0,0.0,0.0,0.0,0.0,0.0,0.0,0.0,0.0,0.0,0.0,0.0,0.0,0.0,0.0,0.0,0.0,0.0,0.0,0.0,0.0,0.0,0.0,0.0,0.0,0.0,0.0,0.0,0.0,0.0,0.0,0.0,0.0,0.0,0.0,0.0,0.0,0.0,0.0,0.0,0.0,0.0,0.0,0.0,0.0,0.0,0.0,0.0,0.0,0.0,0.0,0.0
-0.08534464154047679,-0.09201473822344844,-0.09791017027403992,-0.10402113906640878,-0.11106220390985354,-0.11927169839531612,-0.12836047796651895,-0.13746971170578454,-0.1454282360347639,-0.1510046522225966,-0.15319875525015547,-0.15154262343543295,-0.14602825838764782,-0.13727496622634772,-0.12634198655594236,-0.11451005653506835,-0.10311515227917321,-0.09309871224090935,-0.08510272288523822,-0.07937418935426892,-0.07582135781998123,-0.07421115064350745,-0.07400216916949853,-0.07471056175209366,-0.07589370772968512,-0.07718117119614548,-0.07832825213093618,-0.07908001400529723,-0.07933690136557298,-0.07911379028311152,-0.07854098457230975,-0.07784119820588667,-0.07728603333731981,-0.07716775039463285,-0.07768386459394891,-0.07884507785896253,-0.08037397903228986,-0.0818091016900962,-0.08252964964809537,-0.08185115465411429,-0.07914917114561529,-0.07390865256502588,-0.06604454954748688,-0.05584655031192151,-0.043961681619828254,-0.031280871500042044,-0.018675084686792878,-0.007110868355904221,0.0027560450166705837,0.010625302341231616,0.0165874281455312,0.02118715673904404,0.024911641086102342,0.02839728730402984,0.03213601330524149,0.036350622973370085,0.04105774293566434,0.04577946936930663,0.050075467047399756,0.05357480188342312,0.05611381780120897,0.05789148844040542,0.059131246915085485,0.0603714910669912,0.06212789632618596,0.06468236335379848,0.06796763747587524,0.07136141616398833,0.07401712609349474,0.07494729075865174,0.07325090890638801,0.06833078429352478,0.060049076239170725,0.04887081832223956,0.0357342366843472,0.02184365191727839,0.008448501594452922,-0.003604164857300879,-0.01384048523590049,-0.0223162203934887,-0.029563605071831225,-0.0363095062393882,-0.04358215789587919,-0.052093434882980974,-0.062139677235559874,-0.07349590481846485,-0.0853685859057819,-0.0967841780237767,-0.10655683733656632,-0.11365183094322481,-0.11742820456509849,-0.11775352080976319,-0.1151440679629953,-0.11046030036337728,-0.10476070044576036,-0.09905064235474345,-0.09399832541904839,-0.08996303493699898,-0.08678952095267589,-0.08394065389676679,-0.08067308014438841,-0.07618006370735055,-0.0700305186035439,-0.0621546305586895,-0.05290257956145328,-0.04294944729373517,-0.0330951248881273,-0.024083344124182664,0.0,0.0,0.0,0.0,0.0,0.0,0.0,0.0,0.0,0.0,0.0,0.0,0.0,0.0,0.0,0.0,0.0,0.0,0.0,0.0,0.0,0.0,0.0,0.0,0.0,0.0,0.0,0.0,0.0,0.0,0.0,0.0,0.0,0.0,0.0,0.0,0.0,0.0,0.0,0.0,0.0,0.0,0.0,0.0,0.0,0.0,0.0,0.0,0.0,0.0,0.0,0.0,0.0,0.0,0.0,0.0,0.0,0.0,0.0,0.0,0.0,0.0,0.0,0.0,0.0,0.0,0.0,0.0,0.0,0.0,0.0,0.0,0.0,0.0,0.0,0.0,0.0,0.0,0.0,0.0,0.0,0.0,0.0,0.0,0.0,0.0,0.0,0.0,0.0,0.0,0.0,0.0,0.0,0.0,0.0,0.0,0.0,0.0,0.0,0.0,0.0,0.0,0.0,0.0,0.0,0.0,0.0,0.0,0.0,0.0,0.0,0.0,0.0,0.0,0.0,0.0,0.0,0.0,0.0,0.0,0.0,0.0,0.0,0.0,0.0,0.0,0.0,0.0,0.0,0.0,0.0,0.0,0.0,0.0,0.0,0.0,0.0,0.0,0.0,0.0,0.0,0.0,0.0,0.0,0.0,0.0,0.0,0.0,0.0,0.0,0.0,0.0,0.0,0.0,0.0,0.0,0.0,0.0,0.0,0.0,0.0,0.0,0.0,0.0,0.0,0.0,0.0,0.0,0.0,0.0,0.0,0.0,0.0,0.0,0.0,0.0,0.0,0.0,0.0,0.0,0.0,0.0,0.0,0.0,0.0,0.0,0.0,0.0,0.0,0.0,0.0,0.0
0.024911641086102342,0.02839728730402984,0.03213601330524149,0.036350622973370085,0.04105774293566434,0.04577946936930663,0.050075467047399756,0.05357480188342312,0.05611381780120897,0.05789148844040542,0.059131246915085485,0.0603714910669912,0.06212789632618596,0.06468236335379848,0.06796763747587524,0.07136141616398833,0.07401712609349474,0.07494729075865174,0.07325090890638801,0.06833078429352478,0.060049076239170725,0.04887081832223956,0.0357342366843472,0.02184365191727839,0.008448501594452922,-0.003604164857300879,-0.01384048523590049,-0.0223162203934887,-0.029563605071831225,-0.0363095062393882,-0.04358215789587919,-0.052093434882980974,-0.062139677235559874,-0.07349590481846485,-0.0853685859057819,-0.0967841780237767,-0.10655683733656632,-0.11365183094322481,-0.11742820456509849,-0.11775352080976319,-0.1151440679629953,-0.11046030036337728,-0.10476070044576036,-0.09905064235474345,-0.09399832541904839,-0.08996303493699898,-0.08678952095267589,-0.08394065389676679,-0.08067308014438841,-0.07618006370735055,-0.0700305186035439,-0.0621546305586895,-0.05290257956145328,-0.04294944729373517,-0.0330951248881273,-0.024083344124182664,-0.016419023211218374,-0.010227336779669539,-0.005225814443081915,-0.0008501070206384361,0.00373024188819777,0.009213250878256498,0.016013604647171165,0.024108860022382415,0.032918257299620675,0.04155161157548551,0.04873187886675303,0.05309408043642654,0.053443534487846736,0.04892085474280052,0.039425910955079815,0.025422193282114668,0.007990601063542137,-0.01130653265430086,-0.030645842841455877,-0.04817000780446478,-0.0622749417265094,-0.07178337646391161,-0.07605659979644845,-0.07496044523885076,-0.06902084702535573,-0.059144418930162035,-0.04654593493576652,-0.03261371811305031,-0.01868980925272765,-0.006269931687391545,0.0034059445562091423,0.009335936737455126,0.010829163570347834,0.007695593285168913,-0.00012360686924621871,-0.01208349169909172,-0.027196579802581573,-0.04409983793475178,-0.06108765866014597,-0.07655535934970929,-0.08886346923831005,-0.09665165915501506,-0.09902883943985137,-0.0956698471406119,-0.08701812696014591,-0.07403691862423892,-0.05814734933668913,-0.04102218436945847,-0.024344127701362583,-0.00954848919619084,0.002421245604781664,0.011198162388455482,0.0,0.0,0.0,0.0,0.0,0.0,0.0,0.0,0.0,0.0,0.0,0.0,0.0,0.0,0.0,0.0,0.0,0.0,0.0,0.0,0.0,0.0,0.0,0.0,0.0,0.0,0.0,0.0,0.0,0.0,0.0,0.0,0.0,0.0,0.0,0.0,0.0,0.0,0.0,0.0,0.0,0.0,0.0,0.0,0.0,0.0,0.0,0.0,0.0,0.0,0.0,0.0,0.0,0.0,0.0,0.0,0.0,0.0,0.0,0.0,0.0,0.0,0.0,0.0,0.0,0.0,0.0,0.0,0.0,0.0,0.0,0.0,0.0,0.0,0.0,0.0,0.0,0.0,0.0,0.0,0.0,0.0,0.0,0.0,0.0,0.0,0.0,0.0,0.0,0.0,0.0,0.0,0.0,0.0,0.0,0.0,0.0,0.0,0.0,0.0,0.0,0.0,0.0,0.0,0.0,0.0,0.0,0.0,0.0,0.0,0.0,0.0,0.0,0.0,0.0,0.0,0.0,0.0,0.0,0.0,0.0,0.0,0.0,0.0,0.0,0.0,0.0,0.0,0.0,0.0,0.0,0.0,0.0,0.0,0.0,0.0,0.0,0.0,0.0,0.0,0.0,0.0,0.0,0.0,0.0,0.0,0.0,0.0,0.0,0.0,0.0,0.0,0.0,0.0,0.0,0.0,0.0,0.0,0.0,0.0,0.0,0.0,0.0,0.0,0.0,0.0,0.0,0.0,0.0,0.0,0.0,0.0,0.0,0.0,0.0,0.0,0.0,0.0,0.0,0.0,0.0,0.0,0.0,0.0,0.0,0.0,0.0,0.0,0.0,0.0,0.0,0.0
-0.07496044523885076,-0.06902084702535573,-0.059144418930162035,-0.04654593493576652,-0.03261371811305031,-0.01868980925272765,-0.006269931687391545,0.0034059445562091423,0.009335936737455126,0.010829163570347834,0.007695593285168913,-0.00012360686924621871,-0.01208349169909172,-0.027196579802581573,-0.04409983793475178,-0.06108765866014597,-0.07655535934970929,-0.08886346923831005,-0.09665165915501506,-0.09902883943985137,-0.0956698471406119,-0.08701812696014591,-0.07403691862423892,-0.05814734933668913,-0.04102218436945847,-0.024344127701362583,-0.00954848919619084,0.002421245604781664,0.011198162388455482,0.01698447070093444,0.02038221242265378,0.02236464291871479,0.023924853290463576,0.02587105628847461,0.028640423754426877,0.03211808157913,0.03589512296864473,0.03915888510238911,0.040933790006383766,0.04029637680791931,0.036477106405355515,0.029360021294259055,0.019243274173531312,0.006903985768025717,-0.006532841814770609,-0.019820746377421285,-0.03178149363107069,-0.04154805493242419,-0.048710484070195605,-0.05336206043746053,-0.05596248498584462,-0.05741468799170579,-0.05858045701741292,-0.060148654992173325,-0.06246707244857899,-0.06540846934876764,-0.06856030065892414,-0.0711793744885672,-0.07242624023152233,-0.07157208445969744,-0.06814425465810976,-0.0621331137055117,-0.05394521282288036,-0.044326742918843406,-0.0341944294427265,-0.02440628972960194,-0.015663476212334715,-0.008265717153917053,-0.002121551856448614,0.003183225574244452,0.008255237646861898,0.013625466064583166,0.01974836513964097,0.026795515864563878,0.034595488324557215,0.04264108196169745,0.05029487099470418,0.056956198284269725,0.06222372640214291,0.06600775107486999,0.06847772687706072,0.07023174596203569,0.07194376454139625,0.07421411945123052,0.07736592221181,0.0812087397077051,0.08527155966643778,0.08863072822759786,0.09015100454134976,0.08872409334875,0.08342080237741173,0.07402109043880471,0.060844453733433446,0.04481783158579626,0.027328806295392482,0.009899414577578652,-0.005881479280251889,-0.0188032993076539,-0.02820456080559554,-0.03406648075796505,-0.03701964777802701,-0.03803035169211532,-0.03818627324654186,-0.038433232554994715,-0.039362867793987136,-0.041137381806886406,-0.04339106751428909,-0.04535088431999201,0.0,0.0,0.0,0.0,0.0,0.0,0.0,0.0,0.0,0.0,0.0,0.0,0.0,0.0,0.0,0.0,0.0,0.0,0.0,0.0,0.0,0.0,0.0,0.0,0.0,0.0,0.0,0.0,0.0,0.0,0.0,0.0,0.0,0.0,0.0,0.0,0.0,0.0,0.0,0.0,0.0,0.0,0.0,0.0,0.0,0.0,0.0,0.0,0.0,0.0,0.0,0.0,0.0,0.0,0.0,0.0,0.0,0.0,0.0,0.0,0.0,0.0,0.0,0.0,0.0,0.0,0.0,0.0,0.0,0.0,0.0,0.0,0.0,0.0,0.0,0.0,0.0,0.0,0.0,0.0,0.0,0.0,0.0,0.0,0.0,0.0,0.0,0.0,0.0,0.0,0.0,0.0,0.0,0.0,0.0,0.0,0.0,0.0,0.0,0.0,0.0,0.0,0.0,0.0,0.0,0.0,0.0,0.0,0.0,0.0,0.0,0.0,0.0,0.0,0.0,0.0,0.0,0.0,0.0,0.0,0.0,0.0,0.0,0.0,0.0,0.0,0.0,0.0,0.0,0.0,0.0,0.0,0.0,0.0,0.0,0.0,0.0,0.0,0.0,0.0,0.0,0.0,0.0,0.0,0.0,0.0,0.0,0.0,0.0,0.0,0.0,0.0,0.0,0.0,0.0,0.0,0.0,0.0,0.0,0.0,0.0,0.0,0.0,0.0,0.0,0.0,0.0,0.0,0.0,0.0,0.0,0.0,0.0,0.0,0.0,0.0,0.0,0.0,0.0,0.0,0.0,0.0,0.0,0.0,0.0,0.0,0.0,0.0,0.0,0.0,0.0,0.0
-0.03701964777802701,-0.03803035169211532,-0.03818627324654186,-0.038433232554994715,-0.039362867793987136,-0.041137381806886406,-0.04339106751428909,-0.04535088431999201,-0.046065091718720044,-0.044659254830009217,-0.04059597943715121,-0.03376329894944599,-0.024477164767576692,-0.01344620001098061,-0.0016283334858878417,0.009911561451219977,0.020331144932298977,0.029097499069636743,0.03605689617802918,0.04140258785823353,0.04549859294093468,0.04894257554059822,0.05225625463842423,0.05580549924923387,0.059731380390540496,0.0638620713358094,0.06803543533425595,0.07195302738587486,0.07534788683337672,0.07806017292284746,0.07997328821951791,0.08132794300091377,0.08235589850233577,0.08330618909896564,0.08437269054502435,0.08553799302467165,0.08689406764552392,0.08831999992946966,0.0896394946456302,0.09068520816720126,0.0912477301359479,0.09146005315489526,0.0914263762119414,0.09130261308823345,0.09124233001878586,0.0912681068595957,0.09145535596122302,0.09172139289403461,0.09190266030386128,0.09179945187037046,0.0911957242772691,0.0900042129615255,0.08826140651549229,0.08611684365766281,0.08379032321303839,0.0814970106908059,0.07943153402659192,0.0777486890744096,0.07652989307207604,0.07578119455570632,0.07544758231039495,0.0754138987528086,0.07559156041547663,0.07589953090928858,0.07626315372700505,0.07664374450718492,0.0769414837308641,0.07708209406388711,0.07701721234220817,0.07674511289830378,0.07638511743997367,0.07599261946154245,0.07562312027116051,0.07530452981198822,0.07503301031835688,0.07483362650749972,0.07464226544510973,0.074366356492051,0.07393158047982439,0.07332090773840996,0.07263444160152367,0.07198331407212792,0.07143819480309714,0.07102545366072077,0.07071718069156041,0.07049143881589853,0.07024264536952128,0.06981967736417206,0.0691128565211809,0.06811345364471086,0.0669985186091455,0.06596642257043685,0.06517985577066682,0.06472675836988791,0.06458080767127483,0.06463627428273165,0.06464491963446305,0.06424863544121648,0.06311511790330879,0.061048161697838804,0.05808937509473593,0.05448803734536844,0.05057520217258021,0.046711730913788725,0.04317895166102027,0.04009481516631686,0.037326797253085804,0.03440732672424735,0.0,0.0,0.0,0.0,0.0,0.0,0.0,0.0,0.0,0.0,0.0,0.0,0.0,0.0,0.0,0.0,0.0,0.0,0.0,0.0,0.0,0.0,0.0,0.0,0.0,0.0,0.0,0.0,0.0,0.0,0.0,0.0,0.0,0.0,0.0,0.0,0.0,0.0,0.0,0.0,0.0,0.0,0.0,0.0,0.0,0.0,0.0,0.0,0.0,0.0,0.0,0.0,0.0,0.0,0.0,0.0,0.0,0.0,0.0,0.0,0.0,0.0,0.0,0.0,0.0,0.0,0.0,0.0,0.0,0.0,0.0,0.0,0.0,0.0,0.0,0.0,0.0,0.0,0.0,0.0,0.0,0.0,0.0,0.0,0.0,0.0,0.0,0.0,0.0,0.0,0.0,0.0,0.0,0.0,0.0,0.0,0.0,0.0,0.0,0.0,0.0,0.0,0.0,0.0,0.0,0.0,0.0,0.0,0.0,0.0,0.0,0.0,0.0,0.0,0.0,0.0,0.0,0.0,0.0,0.0,0.0,0.0,0.0,0.0,0.0,0.0,0.0,0.0,0.0,0.0,0.0,0.0,0.0,0.0,0.0,0.0,0.0,0.0,0.0,0.0,0.0,0.0,0.0,0.0,0.0,0.0,0.0,0.0,0.0,0.0,0.0,0.0,0.0,0.0,0.0,0.0,0.0,0.0,0.0,0.0,0.0,0.0,0.0,0.0,0.0,0.0,0.0,0.0,0.0,0.0,0.0,0.0,0.0,0.0,0.0,0.0,0.0,0.0,0.0,0.0,0.0,0.0,0.0,0.0,0.0,0.0,0.0,0.0,0.0,0.0,0.0,0.0
-0.05244654740833406,-0.06771550166648423,-0.08077315739091485,-0.0908153174545708,-0.09747624239516761,-0.10091077998694731,-0.10157062525549795,-0.1002775607288711,-0.09796220118110574,-0.09547439055152325,-0.0935065809308436,-0.0923090906106403,-0.09196640939475002,-0.09239906210407707,-0.0934725387078789,-0.09517386637363147,-0.09737370103537281,-0.10010106912594316,-0.10337972308450556,-0.10713952377970709,-0.1112360029875945,-0.11516046620149946,-0.11838887520763496,-0.12040039186180354,-0.1208065088515353,-0.11954266822202717,-0.11663556327678248,-0.11246255857593322,-0.10756353005238029,-0.10250468308238435,-0.09783655774245728,-0.09371483262798828,-0.09017214572998891,-0.08707290724112891,-0.08420285731323338,-0.08146187900446,-0.07863446289264925,-0.07571202039212689,-0.07277562906043478,-0.06993284951636355,-0.0673303301726822,-0.06482789237409955,-0.06223737884174261,-0.05928107044365871,-0.05566284171949373,-0.0512312754713461,-0.045813043741102503,-0.039463026687266686,-0.03240492331372913,-0.02499073055367544,-0.017673518058041744,-0.010806268460187809,-0.0046142021979827235,0.0008462035373983373,0.005681380612142855,0.010105681412671349,0.014363616998170656,0.018760573734283033,0.02351593562635679,0.028686324627883897,0.0341223484095802,0.039480774474562115,0.04440642043901895,0.048559876964889885,0.05169126864362494,0.05368440913133547,0.05456526288617137,0.05459373098836816,0.05414010188689901,0.053586974717399934,0.05328423052184584,0.053311103297782755,0.05372184842261708,0.0544760892518517,0.055482680791174924,0.05675016250321183,0.058072272227288495,0.059437192365338544,0.06087165941976228,0.062398221138393446,0.0640658344476542,0.06569080243355073,0.06716853197730842,0.06839843369144645,0.06931376148561198,0.06993957343284467,0.07026026632195095,0.07039996611510134,0.07050572549946055,0.07069250897207727,0.07101874149895963,0.0713972758505067,0.07175162863105303,0.07199652313046301,0.07207125645854255,0.07196097801248111,0.07168319242230263,0.07134280269487672,0.07105386978284785,0.07088758768426962,0.0708147659398022,0.07075857602291741,0.07060990762053161,0.07027132202754252,0.06970391890999666,0.06891545292305867,0.06808988127708979,0.06744589256264939,0.0,0.0,0.0,0.0,0.0,0.0,0.0,0.0,0.0,0.0,0.0,0.0,0.0,0.0,0.0,0.0,0.0,0.0,0.0,0.0,0.0,0.0,0.0,0.0,0.0,0.0,0.0,0.0,0.0,0.0,0.0,0.0,0.0,0.0,0.0,0.0,0.0,0.0,0.0,0.0,0.0,0.0,0.0,0.0,0.0,0.0,0.0,0.0,0.0,0.0,0.0,0.0,0.0,0.0,0.0,0.0,0.0,0.0,0.0,0.0,0.0,0.0,0.0,0.0,0.0,0.0,0.0,0.0,0.0,0.0,0.0,0.0,0.0,0.0,0.0,0.0,0.0,0.0,0.0,0.0,0.0,0.0,0.0,0.0,0.0,0.0,0.0,0.0,0.0,0.0,0.0,0.0,0.0,0.0,0.0,0.0,0.0,0.0,0.0,0.0,0.0,0.0,0.0,0.0,0.0,0.0,0.0,0.0,0.0,0.0,0.0,0.0,0.0,0.0,0.0,0.0,0.0,0.0,0.0,0.0,0.0,0.0,0.0,0.0,0.0,0.0,0.0,0.0,0.0,0.0,0.0,0.0,0.0,0.0,0.0,0.0,0.0,0.0,0.0,0.0,0.0,0.0,0.0,0.0,0.0,0.0,0.0,0.0,0.0,0.0,0.0,0.0,0.0,0.0,0.0,0.0,0.0,0.0,0.0,0.0,0.0,0.0,0.0,0.0,0.0,0.0,0.0,0.0,0.0,0.0,0.0,0.0,0.0,0.0,0.0,0.0,0.0,0.0,0.0,0.0,0.0,0.0,0.0,0.0,0.0,0.0,0.0,0.0,0.0,0.0,0.0,0.0
-0.03854413483032717,-0.04277846654010776,-0.04283935054097973,-0.03920185912470959,-0.032774406511750905,-0.02471600879966109,-0.01621276226593826,-0.008247264449067218,-0.001476425784382695,0.003792993592967992,0.007621209036004024,0.010352942008231234,0.012462298046494782,0.01449998198105315,0.016817299132346766,0.01955343988577352,0.022635441984412016,0.02581969371902035,0.02886171886000464,0.031481033750713996,0.03350415317104966,0.0349179419605928,0.03585963322570399,0.036622420329574065,0.03744761717394924,0.03849645415205716,0.039801794896419905,0.04125542373967884,0.042694108559909086,0.043859284614597115,0.04454412428497358,0.04468564783224701,0.04441059418441649,0.044057711306109845,0.04399072294379026,0.044524254204153284,0.045794727687152294,0.04765079962943528,0.04962968995867342,0.050883050526640654,0.050339766367362544,0.046903807542057585,0.03968831174155712,0.028259363109162345,0.012704188378246386,-0.0062570764064105045,-0.027309298424173248,-0.0486849833890467,-0.06843191876336749,-0.08469937750333084,-0.09601867502920501,-0.10152240439040407,-0.10104332921353791,-0.09518241976961618,-0.08508769412029045,-0.07228848836569933,-0.05845017226017137,-0.04511422939944523,-0.033553435120541625,-0.024586071907062097,-0.018556502808647568,-0.015377940129938681,-0.014620870283782316,-0.015684379360972903,-0.0179114436701724,-0.020696329763267313,-0.02355173817079781,-0.02604119084727996,-0.028056529978734954,-0.029603104809072057,-0.03078298944903963,-0.03172553621165694,-0.032349905554924015,-0.032854026578553026,-0.0333492843344134,-0.033923359282386316,-0.034616717478531095,-0.03511222662101317,-0.03558941245304364,-0.036116863080468666,-0.03675631890282785,-0.03750789874540525,-0.03786819776792736,-0.03803322154518545,-0.038075017993896704,-0.038133110168807396,-0.038354769860687296,-0.038556533346657665,-0.038891941664037546,-0.03928649336238207,-0.039515189520199265,-0.03920164097596934,-0.03777378907528374,-0.03487527895667704,-0.03033821837099419,-0.024316865583448196,-0.017313235707070353,-0.009968315037087274,-0.003345739325958601,0.0016376031979606987,0.004340328440034126,0.0045751695618286336,0.002858013115486011,-0.00024377354535981425,-0.0037675116625697446,-0.006806285534959904,-0.008799197441711048,-0.009653613995217495,0.0,0.0,0.0,0.0,0.0,0.0,0.0,0.0,0.0,0.0,0.0,0.0,0.0,0.0,0.0,0.0,0.0,0.0,0.0,0.0,0.0,0.0,0.0,0.0,0.0,0.0,0.0,0.0,0.0,0.0,0.0,0.0,0.0,0.0,0.0,0.0,0.0,0.0,0.0,0.0,0.0,0.0,0.0,0.0,0.0,0.0,0.0,0.0,0.0,0.0,0.0,0.0,0.0,0.0,0.0,0.0,0.0,0.0,0.0,0.0,0.0,0.0,0.0,0.0,0.0,0.0,0.0,0.0,0.0,0.0,0.0,0.0,0.0,0.0,0.0,0.0,0.0,0.0,0.0,0.0,0.0,0.0,0.0,0.0,0.0,0.0,0.0,0.0,0.0,0.0,0.0,0.0,0.0,0.0,0.0,0.0,0.0,0.0,0.0,0.0,0.0,0.0,0.0,0.0,0.0,0.0,0.0,0.0,0.0,0.0,0.0,0.0,0.0,0.0,0.0,0.0,0.0,0.0,0.0,0.0,0.0,0.0,0.0,0.0,0.0,0.0,0.0,0.0,0.0,0.0,0.0,0.0,0.0,0.0,0.0,0.0,0.0,0.0,0.0,0.0,0.0,0.0,0.0,0.0,0.0,0.0,0.0,0.0,0.0,0.0,0.0,0.0,0.0,0.0,0.0,0.0,0.0,0.0,0.0,0.0,0.0,0.0,0.0,0.0,0.0,0.0,0.0,0.0,0.0,0.0,0.0,0.0,0.0,0.0,0.0,0.0,0.0,0.0,0.0,0.0,0.0,0.0,0.0,0.0,0.0,0.0,0.0,0.0,0.0,0.0,0.0,0.0
-0.10152240439040407,-0.10104332921353791,-0.09518241976961618,-0.08508769412029045,-0.07228848836569933,-0.05845017226017137,-0.04511422939944523,-0.033553435120541625,-0.024586071907062097,-0.018556502808647568,-0.015377940129938681,-0.014620870283782316,-0.015684379360972903,-0.0179114436701724,-0.020696329763267313,-0.02355173817079781,-0.02604119084727996,-0.028056529978734954,-0.029603104809072057,-0.03078298944903963,-0.03172553621165694,-0.032349905554924015,-0.032854026578553026,-0.0333492843344134,-0.033923359282386316,-0.034616717478531095,-0.03511222662101317,-0.03558941245304364,-0.036116863080468666,-0.03675631890282785,-0.03750789874540525,-0.03786819776792736,-0.03803322154518545,-0.038075017993896704,-0.038133110168807396,-0.038354769860687296,-0.038556533346657665,-0.038891941664037546,-0.03928649336238207,-0.039515189520199265,-0.03920164097596934,-0.03777378907528374,-0.03487527895667704,-0.03033821837099419,-0.024316865583448196,-0.017313235707070353,-0.009968315037087274,-0.003345739325958601,0.0016376031979606987,0.004340328440034126,0.0045751695618286336,0.002858013115486011,-0.00024377354535981425,-0.0037675116625697446,-0.006806285534959904,-0.008799197441711048,-0.009653613995217495,-0.010112003285576918,-0.011369893053488362,-0.014914143334967364,-0.022173564445250735,-0.034149885426601204,-0.051134045544133165,-0.07254650504643892,-0.09702068963427243,-0.1226850020977639,-0.14762569715371165,-0.17030924946502052,-0.19003540885404743,-0.20718423365077246,-0.22319643975027703,-0.2403107069302909,-0.2608487763377391,-0.28660171912300864,-0.3181823446696973,-0.3546129355014029,-0.393255955678836,-0.43016840762630687,-0.4607113567026726,-0.4804483905172421,-0.4860294312525288,-0.47581654209143703,-0.4504233285305663,-0.41243146049389395,-0.3659668699443506,-0.31594546594028966,-0.2671399428603936,-0.22370301702360423,-0.18840556829031255,-0.16250804604855418,-0.14586150062805056,-0.13712581586219236,-0.13455816201094986,-0.13614098149561402,-0.13999459857521057,-0.1445510306908526,-0.14855078615842462,-0.15109077954018335,-0.15143233861356045,-0.14897142538528094,-0.14324056075365463,-0.13401335822661622,-0.12127281864907144,-0.1053952867443361,-0.08715481260133205,-0.0676699364549324,-0.04830991847711009,-0.030325492645033026,0.0,0.0,0.0,0.0,0.0,0.0,0.0,0.0,0.0,0.0,0.0,0.0,0.0,0.0,0.0,0.0,0.0,0.0,0.0,0.0,0.0,0.0,0.0,0.0,0.0,0.0,0.0,0.0,0.0,0.0,0.0,0.0,0.0,0.0,0.0,0.0,0.0,0.0,0.0,0.0,0.0,0.0,0.0,0.0,0.0,0.0,0.0,0.0,0.0,0.0,0.0,0.0,0.0,0.0,0.0,0.0,0.0,0.0,0.0,0.0,0.0,0.0,0.0,0.0,0.0,0.0,0.0,0.0,0.0,0.0,0.0,0.0,0.0,0.0,0.0,0.0,0.0,0.0,0.0,0.0,0.0,0.0,0.0,0.0,0.0,0.0,0.0,0.0,0.0,0.0,0.0,0.0,0.0,0.0,0.0,0.0,0.0,0.0,0.0,0.0,0.0,0.0,0.0,0.0,0.0,0.0,0.0,0.0,0.0,0.0,0.0,0.0,0.0,0.0,0.0,0.0,0.0,0.0,0.0,0.0,0.0,0.0,0.0,0.0,0.0,0.0,0.0,0.0,0.0,0.0,0.0,0.0,0.0,0.0,0.0,0.0,0.0,0.0,0.0,0.0,0.0,0.0,0.0,0.0,0.0,0.0,0.0,0.0,0.0,0.0,0.0,0.0,0.0,0.0,0.0,0.0,0.0,0.0,0.0,0.0,0.0,0.0,0.0,0.0,0.0,0.0,0.0,0.0,0.0,0.0,0.0,0.0,0.0,0.0,0.0,0.0,0.0,0.0,0.0,0.0,0.0,0.0,0.0,0.0,0.0,0.0,0.0,0.0,0.0,0.0,0.0,0.0
-0.17030924946502052,-0.19003540885404743,-0.20718423365077246,-0.22319643975027703,-0.2403107069302909,-0.2608487763377391,-0.28660171912300864,-0.3181823446696973,-0.3546129355014029,-0.393255955678836,-0.43016840762630687,-0.4607113567026726,-0.4804483905172421,-0.4860294312525288,-0.47581654209143703,-0.4504233285305663,-0.41243146049389395,-0.3659668699443506,-0.31594546594028966,-0.2671399428603936,-0.22370301702360423,-0.18840556829031255,-0.16250804604855418,-0.14586150062805056,-0.13712581586219236,-0.13455816201094986,-0.13614098149561402,-0.13999459857521057,-0.1445510306908526,-0.14855078615842462,-0.15109077954018335,-0.15143233861356045,-0.14897142538528094,-0.14324056075365463,-0.13401335822661622,-0.12127281864907144,-0.1053952867443361,-0.08715481260133205,-0.0676699364549324,-0.04830991847711009,-0.030325492645033026,-0.014712582270613953,-0.0019901080215677194,0.007900687843789852,0.015504588431074181,0.021866110528925457,0.028149979553382946,0.03533438881964763,0.04390590674439585,0.05363474315711122,0.06357504522448221,0.07232972107303726,0.07827382874098752,0.07991112564500186,0.07623549645832732,0.06687939165495825,0.05254934889778507,0.03475546825347737,0.015489249748071962,-0.003129588139468528,-0.019635271799127864,-0.032878197414778015,-0.042492817195485234,-0.048932626148857926,-0.05317312653547905,-0.05699680496874103,-0.0616103696394636,-0.0677233331501499,-0.07539333217499448,-0.08395792363626538,-0.09246372555290472,-0.09932463429665528,-0.10289681397945316,-0.10185403820113105,-0.09551082823894733,-0.08399035979376637,-0.06805773192007382,-0.04906380588964175,-0.028708701303694198,-0.008539891925024103,0.009656399834642027,0.024772396744027165,0.03631608598040578,0.04443663559374266,0.05026231291810252,0.05433420379729218,0.057547972165751735,0.06061219312116945,0.0639364741601219,0.0680414797357479,0.07239446043613786,0.07659592168215575,0.08030890542885324,0.08343631272650111,0.0865864628607128,0.08986790672053176,0.0935987668844407,0.09794158399400235,0.10281623526097387,0.1081183234790583,0.11320347653117215,0.11747520321166083,0.12050300465119132,0.12219615779544662,0.12290259961424499,0.12324435706003395,0.12388331799478076,0.12530532025599264,0.0,0.0,0.0,0.0,0.0,0.0,0.0,0.0,0.0,0.0,0.0,0.0,0.0,0.0,0.0,0.0,0.0,0.0,0.0,0.0,0.0,0.0,0.0,0.0,0.0,0.0,0.0,0.0,0.0,0.0,0.0,0.0,0.0,0.0,0.0,0.0,0.0,0.0,0.0,0.0,0.0,0.0,0.0,0.0,0.0,0.0,0.0,0.0,0.0,0.0,0.0,0.0,0.0,0.0,0.0,0.0,0.0,0.0,0.0,0.0,0.0,0.0,0.0,0.0,0.0,0.0,0.0,0.0,0.0,0.0,0.0,0.0,0.0,0.0,0.0,0.0,0.0,0.0,0.0,0.0,0.0,0.0,0.0,0.0,0.0,0.0,0.0,0.0,0.0,0.0,0.0,0.0,0.0,0.0,0.0,0.0,0.0,0.0,0.0,0.0,0.0,0.0,0.0,0.0,0.0,0.0,0.0,0.0,0.0,0.0,0.0,0.0,0.0,0.0,0.0,0.0,0.0,0.0,0.0,0.0,0.0,0.0,0.0,0.0,0.0,0.0,0.0,0.0,0.0,0.0,0.0,0.0,0.0,0.0,0.0,0.0,0.0,0.0,0.0,0.0,0.0,0.0,0.0,0.0,0.0,0.0,0.0,0.0,0.0,0.0,0.0,0.0,0.0,0.0,0.0,0.0,0.0,0.0,0.0,0.0,0.0,0.0,0.0,0.0,0.0,0.0,0.0,0.0,0.0,0.0,0.0,0.0,0.0,0.0,0.0,0.0,0.0,0.0,0.0,0.0,0.0,0.0,0.0,0.0,0.0,0.0,0.0,0.0,0.0,0.0,0.0,0.0
-0.2873957200951404,-0.3420712129133208,-0.38296206261687404,-0.4093061212691171,-0.4228591256929839,-0.4270117302000117,-0.42620208162547774,-0.4247034031905277,-0.42558543980156804,-0.43015338820861493,-0.4372752369144918,-0.4441418295457528,-0.4469356621975734,-0.44186475833401895,-0.4263417755764593,-0.3991584451184119,-0.36127786016385394,-0.31548946976466075,-0.2658199908424674,-0.21684570549802104,-0.17246370412703896,-0.13566536743261873,-0.10804660758542171,-0.0897752233509158,-0.07990482468151383,-0.07652388190043286,-0.07753877649554294,-0.08092760983455309,-0.08497112318272027,-0.08844517574125721,-0.09024149418040826,-0.08970829311327765,-0.08642880118799477,-0.08016702301452475,-0.07099716373856457,-0.05887589638715957,-0.044179884195580756,-0.027561510399825767,-0.009913441144880257,0.00756964306117723,0.024038260309460692,0.03863208471356157,0.050789067137359256,0.060340140724764235,0.06734913806714536,0.07258857703187939,0.07684352840652897,0.08087739781626842,0.08524538090162598,0.09017100226471979,0.09545767243732671,0.10078983343384294,0.10578387544011807,0.11015062107848772,0.11399851245205436,0.11719426795597868,0.12026676554194085,0.12383947752203575,0.12833998970766897,0.13390225840237693,0.1396029330763883,0.14445208919702965,0.14719143725952383,0.1465293583368502,0.1415611483613937,0.13144725360595935,0.11651692991607322,0.09789313394511041,0.07729018577060591,0.05674293509016678,0.038067282235806736,0.023012635939332473,0.012820487789713063,0.008051013204361598,0.008464483652911742,0.013271677388522696,0.021285292875095473,0.031124835108122483,0.04143873479608093,0.05111028154056069,0.05933685250318586,0.06584777569891802,0.07082959165812451,0.07482645638780026,0.07867032212718465,0.0829887760764348,0.08833642985424807,0.09494614405874878,0.10264869707285575,0.11097144237604775,0.11894952643397656,0.12550951489376336,0.12961516745063578,0.13047093775791122,0.1277739923186799,0.12153396085979058,0.11219693957289571,0.10056973103589904,0.08772230678555051,0.07488041911348166,0.06328142194406493,0.05396163084624728,0.0477040809472352,0.04497367581318981,0.0458146106595235,0.050075631422290656,0.05713254780110382,0.06606769830137908,0.0,0.0,0.0,0.0,0.0,0.0,0.0,0.0,0.0,0.0,0.0,0.0,0.0,0.0,0.0,0.0,0.0,0.0,0.0,0.0,0.0,0.0,0.0,0.0,0.0,0.0,0.0,0.0,0.0,0.0,0.0,0.0,0.0,0.0,0.0,0.0,0.0,0.0,0.0,0.0,0.0,0.0,0.0,0.0,0.0,0.0,0.0,0.0,0.0,0.0,0.0,0.0,0.0,0.0,0.0,0.0,0.0,0.0,0.0,0.0,0.0,0.0,0.0,0.0,0.0,0.0,0.0,0.0,0.0,0.0,0.0,0.0,0.0,0.0,0.0,0.0,0.0,0.0,0.0,0.0,0.0,0.0,0.0,0.0,0.0,0.0,0.0,0.0,0.0,0.0,0.0,0.0,0.0,0.0,0.0,0.0,0.0,0.0,0.0,0.0,0.0,0.0,0.0,0.0,0.0,0.0,0.0,0.0,0.0,0.0,0.0,0.0,0.0,0.0,0.0,0.0,0.0,0.0,0.0,0.0,0.0,0.0,0.0,0.0,0.0,0.0,0.0,0.0,0.0,0.0,0.0,0.0,0.0,0.0,0.0,0.0,0.0,0.0,0.0,0.0,0.0,0.0,0.0,0.0,0.0,0.0,0.0,0.0,0.0,0.0,0.0,0.0,0.0,0.0,0.0,0.0,0.0,0.0,0.0,0.0,0.0,0.0,0.0,0.0,0.0,0.0,0.0,0.0,0.0,0.0,0.0,0.0,0.0,0.0,0.0,0.0,0.0,0.0,0.0,0.0,0.0,0.0,0.0,0.0,0.0,0.0,0.0,0.0,0.0,0.0,0.0,0.0
-0.028046319792528137,-0.03592331363486772,-0.051933068348353914,-0.07342570801268318,-0.09740280099763637,-0.12093084590873522,-0.1412792863820217,-0.15621890476613345,-0.16421654760899956,-0.16454545116873123,-0.15729174721794972,-0.14338172906272242,-0.12419274287101761,-0.10148101567205148,-0.07719436769726438,-0.05326169328263889,-0.03151224657167502,-0.013253615574257716,0.0007205700947028551,0.010156715774202466,0.015322954939901868,0.016798453478768096,0.0156080557239718,0.012926469603444811,0.009877867967951058,0.007463954933022124,0.006058336054402521,0.0059657183720626195,0.00721391520547069,0.009599020161699652,0.012940130990745312,0.01649317207917734,0.019946460830716127,0.02312442361450322,0.025977025572083194,0.02869248579745061,0.031184608296483715,0.03387826868349235,0.037375627039412274,0.04235503098246674,0.04950945789746808,0.05904731640982533,0.07119290496365228,0.0857802448611124,0.10214034489931922,0.11908689144936692,0.13499620110630062,0.14828693422107872,0.15757781109860236,0.1619256588161717,0.16090136675744804,0.15490546784384657,0.14493982067403618,0.13244657941460258,0.11903416137517603,0.10613164766427816,0.09488990405548615,0.08604782661708761,0.07985969363621816,0.07614266393418037,0.07437395643657713,0.07386812647413091,0.07410134016159417,0.0747002666211128,0.0754340692001876,0.07606596179229606,0.0764911939925499,0.0765772035623461,0.07610105091732403,0.07472547446619482,0.07189213404992338,0.06734822699174281,0.06093585693627199,0.05278880325299907,0.04339066943984079,0.03349086051314952,0.024239089611372232,0.01685920084333628,0.01250395586505893,0.012055864413486737,0.015960334428563015,0.024137070085818328,0.035956365184428164,0.05033446391532318,0.06590160530500062,0.08117309074325896,0.09491231165610003,0.10617637533240121,0.11446650690539784,0.11974734619651452,0.12229340298066968,0.12283558277024244,0.12214375167201352,0.1209443250753959,0.11979841091823545,0.11894502918350934,0.1186230410383731,0.11877077611923267,0.1192323815966808,0.11984947563995639,0.12042346533794854,0.12109780224328458,0.1218808300779457,0.12277180458711434,0.12373842714360256,0.12463727836330157,0.12550690537255418,0.12627507478717034,0.0,0.0,0.0,0.0,0.0,0.0,0.0,0.0,0.0,0.0,0.0,0.0,0.0,0.0,0.0,0.0,0.0,0.0,0.0,0.0,0.0,0.0,0.0,0.0,0.0,0.0,0.0,0.0,0.0,0.0,0.0,0.0,0.0,0.0,0.0,0.0,0.0,0.0,0.0,0.0,0.0,0.0,0.0,0.0,0.0,0.0,0.0,0.0,0.0,0.0,0.0,0.0,0.0,0.0,0.0,0.0,0.0,0.0,0.0,0.0,0.0,0.0,0.0,0.0,0.0,0.0,0.0,0.0,0.0,0.0,0.0,0.0,0.0,0.0,0.0,0.0,0.0,0.0,0.0,0.0,0.0,0.0,0.0,0.0,0.0,0.0,0.0,0.0,0.0,0.0,0.0,0.0,0.0,0.0,0.0,0.0,0.0,0.0,0.0,0.0,0.0,0.0,0.0,0.0,0.0,0.0,0.0,0.0,0.0,0.0,0.0,0.0,0.0,0.0,0.0,0.0,0.0,0.0,0.0,0.0,0.0,0.0,0.0,0.0,0.0,0.0,0.0,0.0,0.0,0.0,0.0,0.0,0.0,0.0,0.0,0.0,0.0,0.0,0.0,0.0,0.0,0.0,0.0,0.0,0.0,0.0,0.0,0.0,0.0,0.0,0.0,0.0,0.0,0.0,0.0,0.0,0.0,0.0,0.0,0.0,0.0,0.0,0.0,0.0,0.0,0.0,0.0,0.0,0.0,0.0,0.0,0.0,0.0,0.0,0.0,0.0,0.0,0.0,0.0,0.0,0.0,0.0,0.0,0.0,0.0,0.0,0.0,0.0,0.0,0.0,0.0,0.0
-0.050123499584840844,-0.04362407432036072,-0.03533295815093084,-0.026656932260165325,-0.018692724839356724,-0.012138567593155205,-0.007210435438654933,-0.003732190116323885,-0.0012817818912873298,0.0005920898834651056,0.0023615200277931785,0.004270712098731932,0.0063657323905609384,0.008545595115861006,0.010653066242845418,0.01261810145029084,0.014438093948491184,0.016261157712467056,0.01837297212300934,0.021162196094911115,0.02494840483411524,0.02982768022949729,0.03565280522818567,0.0420480688912229,0.04847119807010041,0.054426515509599045,0.05942627347381423,0.06318928165825334,0.06572316565943646,0.06726167425555571,0.06843323965893988,0.06981159483873949,0.07185191006671322,0.07473924472823194,0.07821089491981736,0.0818133551864689,0.08464682631635717,0.0856374987801713,0.08375532379702742,0.07815009063071633,0.06863977045029114,0.055461860653731,0.03939867810386839,0.021689310230279157,0.0038381845922564437,-0.012533880376164234,-0.025999587499425967,-0.035482751285816884,-0.040376703336469096,-0.04053762767787118,-0.036417911942435655,-0.02880086011004778,-0.018749034350781863,-0.007487006221758445,0.003716146243466015,0.013608176850568969,0.021086404618843705,0.025239424264077815,0.02540269089295221,0.021182666391048998,0.012611431389810789,0.00012197358910092363,-0.01541911082769193,-0.032747404406993884,-0.050319937957983174,-0.06640732119522354,-0.07936027857378777,-0.08781565072852217,-0.09089749970693999,-0.08836517615844776,-0.0806182681724801,-0.06867930329439914,-0.054007956889321675,-0.03826124683101861,-0.0230747373714275,-0.00967256268530752,0.0011361861160451752,0.009077220038687456,0.014375006044902758,0.017547651020861945,0.019494368141252362,0.0210247520866596,0.022774115872859838,0.02508540110518055,0.0278751291494305,0.030934652392985224,0.03371599347512012,0.035551071954120224,0.03579579616545834,0.03387843016509277,0.029698552302921396,0.023369689517698293,0.015327273001478986,0.006282682054429842,-0.0029266966017280033,-0.011283013979230153,-0.017881093321969806,-0.022006792222041566,-0.02323043205659866,-0.02148228092583684,-0.01698935170946326,-0.010234712740459121,-0.001901788125360311,0.007202994567243124,0.016182922861041296,0.02427883750857483,0.03083698388531543,0.03538086898312093,0.0,0.0,0.0,0.0,0.0,0.0,0.0,0.0,0.0,0.0,0.0,0.0,0.0,0.0,0.0,0.0,0.0,0.0,0.0,0.0,0.0,0.0,0.0,0.0,0.0,0.0,0.0,0.0,0.0,0.0,0.0,0.0,0.0,0.0,0.0,0.0,0.0,0.0,0.0,0.0,0.0,0.0,0.0,0.0,0.0,0.0,0.0,0.0,0.0,0.0,0.0,0.0,0.0,0.0,0.0,0.0,0.0,0.0,0.0,0.0,0.0,0.0,0.0,0.0,0.0,0.0,0.0,0.0,0.0,0.0,0.0,0.0,0.0,0.0,0.0,0.0,0.0,0.0,0.0,0.0,0.0,0.0,0.0,0.0,0.0,0.0,0.0,0.0,0.0,0.0,0.0,0.0,0.0,0.0,0.0,0.0,0.0,0.0,0.0,0.0,0.0,0.0,0.0,0.0,0.0,0.0,0.0,0.0,0.0,0.0,0.0,0.0,0.0,0.0,0.0,0.0,0.0,0.0,0.0,0.0,0.0,0.0,0.0,0.0,0.0,0.0,0.0,0.0,0.0,0.0,0.0,0.0,0.0,0.0,0.0,0.0,0.0,0.0,0.0,0.0,0.0,0.0,0.0,0.0,0.0,0.0,0.0,0.0,0.0,0.0,0.0,0.0,0.0,0.0,0.0,0.0,0.0,0.0,0.0,0.0,0.0,0.0,0.0,0.0,0.0,0.0,0.0,0.0,0.0,0.0,0.0,0.0,0.0,0.0,0.0,0.0,0.0,0.0,0.0,0.0,0.0,0.0,0.0,0.0,0.0,0.0,0.0,0.0,0.0,0.0,0.0,0.0
-0.09443956509377789,-0.08780931022187659,-0.07661515086565679,-0.06268966781931261,-0.047939445999431625,-0.034069680274862894,-0.02217264939302562,-0.012784541632433595,-0.00583807399875576,-0.0007952326326429002,0.0030746258855306485,0.006664750835605502,0.010609310893548737,0.015218146322477621,0.020444249037757448,0.025935990488309576,0.03122597976367818,0.03580270675937018,0.03931396537001104,0.04168373070815779,0.04318763711685493,0.04429074958022032,0.04552881591336658,0.04735237379460926,0.04997228093265948,0.05328664125416949,0.05676418880138211,0.059494433982740354,0.06036015909114734,0.058260831157161165,0.052383551406502235,0.042348422347731576,0.028310562281586817,0.011028311908403013,-0.008195600955751217,-0.0276570159771661,-0.045500898392742344,-0.06005116484753262,-0.07001425949327242,-0.0746520330686636,-0.07386655520747872,-0.06816182281685271,-0.05863615707934293,-0.04674319164428997,-0.03404410408215475,-0.021942930074860083,-0.011517937809475815,-0.003341240065445417,0.0025444339763265873,0.0065638249043540944,0.009487261974919026,0.012117395400327446,0.015260057522275628,0.019444024233235643,0.024768685078327097,0.030835612875312484,0.03680144899388333,0.041569732729072384,0.04396844142869603,0.0429735452523001,0.0378738459032314,0.028546315615376947,0.015428289512088135,-0.0005008380299019926,-0.017862898666718197,-0.03516037076584723,-0.05084093029522142,-0.06370360125208965,-0.07303526409665077,-0.07869934258573648,-0.08118923232605148,-0.08123949615433654,-0.07985329255784598,-0.07799747075567176,-0.07640143010829434,-0.07552055306393596,-0.07524172717905522,-0.07522925007208793,-0.07500012185829627,-0.07410351763085218,-0.07236368180707688,-0.06966295576584848,-0.0662221256829577,-0.062423395218217013,-0.05867393901827435,-0.05532405200043062,-0.05240240030639038,-0.049703787463448355,-0.046816988801941815,-0.04324436040569653,-0.038570060157449904,-0.03255594617778169,-0.02516833739539014,-0.016641680476205675,-0.007447990479319979,0.0017899882548175496,0.010408573214793552,0.01787833646443235,0.02387988269406495,0.028348379447056572,0.031481203040490006,0.03361241232123913,0.03515562831191665,0.03649806967344028,0.03792444917202772,0.03959845471430493,0.04151854167313536,0.04357073925085679,0.0,0.0,0.0,0.0,0.0,0.0,0.0,0.0,0.0,0.0,0.0,0.0,0.0,0.0,0.0,0.0,0.0,0.0,0.0,0.0,0.0,0.0,0.0,0.0,0.0,0.0,0.0,0.0,0.0,0.0,0.0,0.0,0.0,0.0,0.0,0.0,0.0,0.0,0.0,0.0,0.0,0.0,0.0,0.0,0.0,0.0,0.0,0.0,0.0,0.0,0.0,0.0,0.0,0.0,0.0,0.0,0.0,0.0,0.0,0.0,0.0,0.0,0.0,0.0,0.0,0.0,0.0,0.0,0.0,0.0,0.0,0.0,0.0,0.0,0.0,0.0,0.0,0.0,0.0,0.0,0.0,0.0,0.0,0.0,0.0,0.0,0.0,0.0,0.0,0.0,0.0,0.0,0.0,0.0,0.0,0.0,0.0,0.0,0.0,0.0,0.0,0.0,0.0,0.0,0.0,0.0,0.0,0.0,0.0,0.0,0.0,0.0,0.0,0.0,0.0,0.0,0.0,0.0,0.0,0.0,0.0,0.0,0.0,0.0,0.0,0.0,0.0,0.0,0.0,0.0,0.0,0.0,0.0,0.0,0.0,0.0,0.0,0.0,0.0,0.0,0.0,0.0,0.0,0.0,0.0,0.0,0.0,0.0,0.0,0.0,0.0,0.0,0.0,0.0,0.0,0.0,0.0,0.0,0.0,0.0,0.0,0.0,0.0,0.0,0.0,0.0,0.0,0.0,0.0,0.0,0.0,0.0,0.0,0.0,0.0,0.0,0.0,0.0,0.0,0.0,0.0,0.0,0.0,0.0,0.0,0.0,0.0,0.0,0.0,0.0,0.0,0.0
-0.08516842188208995,-0.09166886150068204,-0.09882741139952304,-0.10672125207033,-0.11480923908438588,-0.12278766100393326,-0.13011601639053266,-0.13633243752901486,-0.1411819065791072,-0.14458311362757595,-0.1469454258114956,-0.14884764863376695,-0.15093102824588794,-0.15368817331339096,-0.15713569751512693,-0.1610610500173952,-0.1646932003632032,-0.16686287466380417,-0.16619444004767472,-0.1612357849121783,-0.1512148924214723,-0.13595567341438172,-0.11614120183481642,-0.09332622967373466,-0.0697294390030685,-0.048102005902444615,-0.031215103636563636,-0.021460201480589042,-0.02045801929979455,-0.02881221428760944,-0.04587553290421735,-0.06995017523241649,-0.09852399356216264,-0.12870318036889766,-0.15779016214474467,-0.18361316286238777,-0.20510377082584327,-0.222435458084917,-0.23694834143800073,-0.2508782140677506,-0.26654055989854564,-0.28589987245332144,-0.3098892321684902,-0.3380059994846525,-0.36829799374059696,-0.3974252942206752,-0.42138652802257487,-0.43627129387681324,-0.4390636575313042,-0.42834364057073,-0.4044406958823024,-0.3694315579963343,-0.32677128927053756,-0.2806901525597878,-0.235561644909652,-0.19513012202516972,-0.16204420750526582,-0.13770204275780765,-0.12231664758827131,-0.11520977207525128,-0.11501915654220696,-0.1199290474103157,-0.12799387657436817,-0.13733483962249057,-0.1462248127175526,-0.15329749442006418,-0.15728791131652417,-0.15719424113581637,-0.15235303165670985,-0.14240329172416394,-0.1277624812258175,-0.10914011381373985,-0.08766512401134918,-0.06477760766622181,-0.04195759066430641,-0.02083244578839954,-0.0026081829268996917,0.011989228430940722,0.022797816324266227,0.030273150660396604,0.035129540392767215,0.03834093892724648,0.040866741356541884,0.04346640588104487,0.04676748345409731,0.05067180405247981,0.055023353246326165,0.05957342845628964,0.0641349954378235,0.06896896716395634,0.07386986710970429,0.07905794397465361,0.08473147914393647,0.09092159766550491,0.09769446963636085,0.10420011513352723,0.10991733346043261,0.11445565087455069,0.11770819989318633,0.12021545716362221,0.12210479485336498,0.12418459795127937,0.127215618870336,0.13158001761281649,0.13724325362351117,0.14297007253329808,0.14731862328964843,0.14864118556966288,0.0,0.0,0.0,0.0,0.0,0.0,0.0,0.0,0.0,0.0,0.0,0.0,0.0,0.0,0.0,0.0,0.0,0.0,0.0,0.0,0.0,0.0,0.0,0.0,0.0,0.0,0.0,0.0,0.0,0.0,0.0,0.0,0.0,0.0,0.0,0.0,0.0,0.0,0.0,0.0,0.0,0.0,0.0,0.0,0.0,0.0,0.0,0.0,0.0,0.0,0.0,0.0,0.0,0.0,0.0,0.0,0.0,0.0,0.0,0.0,0.0,0.0,0.0,0.0,0.0,0.0,0.0,0.0,0.0,0.0,0.0,0.0,0.0,0.0,0.0,0.0,0.0,0.0,0.0,0.0,0.0,0.0,0.0,0.0,0.0,0.0,0.0,0.0,0.0,0.0,0.0,0.0,0.0,0.0,0.0,0.0,0.0,0.0,0.0,0.0,0.0,0.0,0.0,0.0,0.0,0.0,0.0,0.0,0.0,0.0,0.0,0.0,0.0,0.0,0.0,0.0,0.0,0.0,0.0,0.0,0.0,0.0,0.0,0.0,0.0,0.0,0.0,0.0,0.0,0.0,0.0,0.0,0.0,0.0,0.0,0.0,0.0,0.0,0.0,0.0,0.0,0.0,0.0,0.0,0.0,0.0,0.0,0.0,0.0,0.0,0.0,0.0,0.0,0.0,0.0,0.0,0.0,0.0,0.0,0.0,0.0,0.0,0.0,0.0,0.0,0.0,0.0,0.0,0.0,0.0,0.0,0.0,0.0,0.0,0.0,0.0,0.0,0.0,0.0,0.0,0.0,0.0,0.0,0.0,0.0,0.0,0.0,0.0,0.0,0.0,0.0,0.0
-0.3694315579963343,-0.32677128927053756,-0.2806901525597878,-0.235561644909652,-0.19513012202516972,-0.16204420750526582,-0.13770204275780765,-0.12231664758827131,-0.11520977207525128,-0.11501915654220696,-0.1199290474103157,-0.12799387657436817,-0.13733483962249057,-0.1462248127175526,-0.15329749442006418,-0.15728791131652417,-0.15719424113581637,-0.15235303165670985,-0.14240329172416394,-0.1277624812258175,-0.10914011381373985,-0.08766512401134918,-0.06477760766622181,-0.04195759066430641,-0.02083244578839954,-0.0026081829268996917,0.011989228430940722,0.022797816324266227,0.030273150660396604,0.035129540392767215,0.03834093892724648,0.040866741356541884,0.04346640588104487,0.04676748345409731,0.05067180405247981,0.055023353246326165,0.05957342845628964,0.0641349954378235,0.06896896716395634,0.07386986710970429,0.07905794397465361,0.08473147914393647,0.09092159766550491,0.09769446963636085,0.10420011513352723,0.10991733346043261,0.11445565087455069,0.11770819989318633,0.12021545716362221,0.12210479485336498,0.12418459795127937,0.127215618870336,0.13158001761281649,0.13724325362351117,0.14297007253329808,0.14731862328964843,0.14864118556966288,0.14545183533244666,0.13690776453317305,0.12265152057446709,0.10334744958306948,0.08042790563955188,0.05582005221108403,0.03169558048112364,0.009707632276171557,-0.008846166209193054,-0.023335958325763517,-0.03381173091027857,-0.04076948470604803,-0.04530678732505197,-0.04841868147529556,-0.05095126047110517,-0.05349173040497661,-0.05634224616683286,-0.059668354761844164,-0.06350014737728801,-0.06792194003707805,-0.07317172989967465,-0.07972806051668563,-0.08798829704818888,-0.09829794291742301,-0.11069742063503558,-0.1247648854262852,-0.13959130775067274,-0.15373618381515608,-0.16556913686081495,-0.17351390555106452,-0.17635804095289576,-0.17350104579604236,-0.16508581643269604,-0.15205476278686667,-0.13593414976365562,-0.11854130074643127,-0.1016928537049149,-0.08677419779022877,-0.07476686909720047,-0.06610561046328833,-0.0607245605399668,-0.0582651833863818,-0.05795237032496017,-0.05909069206446765,-0.061042248219528195,-0.06326517388581294,-0.06537463255317201,-0.06689252811875294,-0.06756155565034971,-0.06722093364235136,-0.06580578723165909,0.0,0.0,0.0,0.0,0.0,0.0,0.0,0.0,0.0,0.0,0.0,0.0,0.0,0.0,0.0,0.0,0.0,0.0,0.0,0.0,0.0,0.0,0.0,0.0,0.0,0.0,0.0,0.0,0.0,0.0,0.0,0.0,0.0,0.0,0.0,0.0,0.0,0.0,0.0,0.0,0.0,0.0,0.0,0.0,0.0,0.0,0.0,0.0,0.0,0.0,0.0,0.0,0.0,0.0,0.0,0.0,0.0,0.0,0.0,0.0,0.0,0.0,0.0,0.0,0.0,0.0,0.0,0.0,0.0,0.0,0.0,0.0,0.0,0.0,0.0,0.0,0.0,0.0,0.0,0.0,0.0,0.0,0.0,0.0,0.0,0.0,0.0,0.0,0.0,0.0,0.0,0.0,0.0,0.0,0.0,0.0,0.0,0.0,0.0,0.0,0.0,0.0,0.0,0.0,0.0,0.0,0.0,0.0,0.0,0.0,0.0,0.0,0.0,0.0,0.0,0.0,0.0,0.0,0.0,0.0,0.0,0.0,0.0,0.0,0.0,0.0,0.0,0.0,0.0,0.0,0.0,0.0,0.0,0.0,0.0,0.0,0.0,0.0,0.0,0.0,0.0,0.0,0.0,0.0,0.0,0.0,0.0,0.0,0.0,0.0,0.0,0.0,0.0,0.0,0.0,0.0,0.0,0.0,0.0,0.0,0.0,0.0,0.0,0.0,0.0,0.0,0.0,0.0,0.0,0.0,0.0,0.0,0.0,0.0,0.0,0.0,0.0,0.0,0.0,0.0,0.0,0.0,0.0,0.0,0.0,0.0,0.0,0.0,0.0,0.0,0.0,0.0
-0.04530678732505197,-0.04841868147529556,-0.05095126047110517,-0.05349173040497661,-0.05634224616683286,-0.059668354761844164,-0.06350014737728801,-0.06792194003707805,-0.07317172989967465,-0.07972806051668563,-0.08798829704818888,-0.09829794291742301,-0.11069742063503558,-0.1247648854262852,-0.13959130775067274,-0.15373618381515608,-0.16556913686081495,-0.17351390555106452,-0.17635804095289576,-0.17350104579604236,-0.16508581643269604,-0.15205476278686667,-0.13593414976365562,-0.11854130074643127,-0.1016928537049149,-0.08677419779022877,-0.07476686909720047,-0.06610561046328833,-0.0607245605399668,-0.0582651833863818,-0.05795237032496017,-0.05909069206446765,-0.061042248219528195,-0.06326517388581294,-0.06537463255317201,-0.06689252811875294,-0.06756155565034971,-0.06722093364235136,-0.06580578723165909,-0.06339745703701886,-0.06004408219387766,-0.05604858668768341,-0.05179497077184484,-0.047651418018488816,-0.04386129505117529,-0.04044321560045295,-0.037215649054980704,-0.03376417083669804,-0.029497048805318546,-0.023708971556485922,-0.015895166455546107,-0.0057596631163051954,0.006594670755659948,0.02058768926731064,0.035176706720961334,0.04893809736315816,0.060342671916877776,0.06795601254207374,0.07067242733993982,0.06786371957364823,0.059595274314486704,0.04664192250441559,0.030355675452765945,0.012456349534399253,-0.00525126556594309,-0.021108817884089994,-0.03369528209038093,-0.04205010199987454,-0.04575972827114131,-0.04496351726427981,-0.040330876199591366,-0.03270043097251946,-0.02307198150503499,-0.01251659443081159,-0.0021116295483821924,0.007103149559353705,0.014331770228265123,0.01898999503227066,0.020726539409518126,0.019428634887182033,0.01524757028457654,0.008656093482511344,0.00037873500296869305,-0.008690182867250625,-0.017641181050709123,-0.025600342886796263,-0.031862398184066804,-0.0360331234921357,-0.038106905144019376,-0.03852833200785001,-0.03793955361322228,-0.03706501595996244,-0.03653158305924084,-0.03670348593807094,-0.03758550151980539,-0.03876697045675126,-0.0394500852824528,-0.03862729915087232,-0.035300066732122506,-0.02867740394505998,-0.018480798303687353,-0.004937264644426162,0.011182710523941779,0.028677718214110706,0.04608265075540572,0.06204640054857625,0.07546424950484537,0.08569744691604364,0.0,0.0,0.0,0.0,0.0,0.0,0.0,0.0,0.0,0.0,0.0,0.0,0.0,0.0,0.0,0.0,0.0,0.0,0.0,0.0,0.0,0.0,0.0,0.0,0.0,0.0,0.0,0.0,0.0,0.0,0.0,0.0,0.0,0.0,0.0,0.0,0.0,0.0,0.0,0.0,0.0,0.0,0.0,0.0,0.0,0.0,0.0,0.0,0.0,0.0,0.0,0.0,0.0,0.0,0.0,0.0,0.0,0.0,0.0,0.0,0.0,0.0,0.0,0.0,0.0,0.0,0.0,0.0,0.0,0.0,0.0,0.0,0.0,0.0,0.0,0.0,0.0,0.0,0.0,0.0,0.0,0.0,0.0,0.0,0.0,0.0,0.0,0.0,0.0,0.0,0.0,0.0,0.0,0.0,0.0,0.0,0.0,0.0,0.0,0.0,0.0,0.0,0.0,0.0,0.0,0.0,0.0,0.0,0.0,0.0,0.0,0.0,0.0,0.0,0.0,0.0,0.0,0.0,0.0,0.0,0.0,0.0,0.0,0.0,0.0,0.0,0.0,0.0,0.0,0.0,0.0,0.0,0.0,0.0,0.0,0.0,0.0,0.0,0.0,0.0,0.0,0.0,0.0,0.0,0.0,0.0,0.0,0.0,0.0,0.0,0.0,0.0,0.0,0.0,0.0,0.0,0.0,0.0,0.0,0.0,0.0,0.0,0.0,0.0,0.0,0.0,0.0,0.0,0.0,0.0,0.0,0.0,0.0,0.0,0.0,0.0,0.0,0.0,0.0,0.0,0.0,0.0,0.0,0.0,0.0,0.0,0.0,0.0,0.0,0.0,0.0,0.0
0.09265550316034392,0.09665111775148905,0.0986164366141903,0.09954201901652816,0.10034650080778013,0.10166928718546654,0.10367808471088648,0.10621878268843327,0.10873881612044618,0.1104820305407768,0.11068307121058917,0.10874803685131074,0.10440006308025412,0.09778928523704764,0.08944007803881357,0.08014808890422373,0.0707851408749256,0.062315370831169024,0.0555738610782593,0.0512051439103451,0.049613106597858274,0.05084120354252827,0.05488464260028073,0.061442346096809444,0.06998941293740849,0.07977686559014006,0.08974733249763216,0.09886116865455599,0.10596991032286246,0.10997195753933593,0.10994062458242185,0.10517044178023792,0.09556306873944219,0.08155707811358219,0.06415599933266193,0.044835399431900534,0.025315573524171586,0.007492218965261602,-0.006880113296015696,-0.016412736854939956,-0.020269825718620762,-0.01829422509056555,-0.010966366092283429,0.0006889323379719269,0.015250377675011416,0.031097841767132168,0.04654411544823985,0.06025555866714943,0.07117693148912263,0.07865989542768266,0.08246550925288511,0.08258773262224205,0.07960490502149908,0.07417451671465641,0.06708953096195089,0.05921384804231258,0.051374172321152954,0.044496687068244854,0.03929714737340239,0.036331429484025526,0.035962186831740045,0.03835669386321716,0.04341920380738329,0.05069654384628277,0.05948090433906516,0.06891385012561768,0.07819562670796668,0.08654571618572443,0.09338476642650738,0.0984527971967703,0.10186551341949532,0.10420290893974524,0.10606572361064626,0.10808909831999747,0.11073117555757701,0.11414342330833038,0.11815811501576323,0.12222950233639394,0.125532944769698,0.1271787406514445,0.12642133319716548,0.122799471016498,0.11637208202575546,0.10749218450323134,0.0968275046170382,0.08525054474988988,0.07368291210884984,0.06308373022598002,0.05423867429475923,0.04776131885043103,0.04407975630261432,0.04340641910180623,0.04578802255037196,0.05104295984524141,0.05870849081279459,0.06799066880821333,0.07768752173173396,0.0864460492957262,0.09270279105528278,0.09493609656226427,0.09190158131381233,0.08276031068845925,0.06760033398943913,0.0471630461632295,0.022898794411839823,-0.0032268314040286203,-0.02906839889810755,-0.05257274479905058,0.0,0.0,0.0,0.0,0.0,0.0,0.0,0.0,0.0,0.0,0.0,0.0,0.0,0.0,0.0,0.0,0.0,0.0,0.0,0.0,0.0,0.0,0.0,0.0,0.0,0.0,0.0,0.0,0.0,0.0,0.0,0.0,0.0,0.0,0.0,0.0,0.0,0.0,0.0,0.0,0.0,0.0,0.0,0.0,0.0,0.0,0.0,0.0,0.0,0.0,0.0,0.0,0.0,0.0,0.0,0.0,0.0,0.0,0.0,0.0,0.0,0.0,0.0,0.0,0.0,0.0,0.0,0.0,0.0,0.0,0.0,0.0,0.0,0.0,0.0,0.0,0.0,0.0,0.0,0.0,0.0,0.0,0.0,0.0,0.0,0.0,0.0,0.0,0.0,0.0,0.0,0.0,0.0,0.0,0.0,0.0,0.0,0.0,0.0,0.0,0.0,0.0,0.0,0.0,0.0,0.0,0.0,0.0,0.0,0.0,0.0,0.0,0.0,0.0,0.0,0.0,0.0,0.0,0.0,0.0,0.0,0.0,0.0,0.0,0.0,0.0,0.0,0.0,0.0,0.0,0.0,0.0,0.0,0.0,0.0,0.0,0.0,0.0,0.0,0.0,0.0,0.0,0.0,0.0,0.0,0.0,0.0,0.0,0.0,0.0,0.0,0.0,0.0,0.0,0.0,0.0,0.0,0.0,0.0,0.0,0.0,0.0,0.0,0.0,0.0,0.0,0.0,0.0,0.0,0.0,0.0,0.0,0.0,0.0,0.0,0.0,0.0,0.0,0.0,0.0,0.0,0.0,0.0,0.0,0.0,0.0,0.0,0.0,0.0,0.0,0.0,0.0
-0.05257274479905058,-0.07227118241225837,-0.08747479057021137,-0.09835524412186958,-0.10578589701867912,-0.1112161012282511,-0.11621867463524277,-0.12208162062497609,-0.12945824973726566,-0.13817464230733348,-0.14722100598024424,-0.15507294645530906,-0.1600155027441804,-0.16056125535266175,-0.15587174598277334,-0.145786642984384,-0.13111865630965408,-0.11338150117971758,-0.0944525223561863,-0.07618933843054727,-0.05996014253245137,-0.04660001809914778,-0.03623346671093526,-0.028343789359710877,-0.021970552109498217,-0.015996239824842978,-0.00958551822599251,-0.0023122114145966363,0.00578121501191188,0.01424697437294481,0.02247395290451829,0.02976652378590507,0.03562534564809715,0.03990621938353463,0.04283312001479368,0.0450501062785107,0.04729882134827171,0.05023323459216523,0.05419229248611441,0.059009512347309695,0.06407521815563365,0.06825830495201639,0.07017452483314814,0.06847836558869418,0.06214743864313215,0.05083054325075775,0.0348104625576169,0.015085704903223264,-0.006746854637263976,-0.028684368709514026,-0.04872077612496035,-0.06505877388071174,-0.0763756086027201,-0.08197207486322212,-0.0817209153869104,-0.07632767504626731,-0.06685135306660617,-0.05465371799928166,-0.04122988582185149,-0.027969064127045317,-0.01633775943435614,-0.007415466823089105,-0.001978851598600536,-0.00048769678048085505,-0.003004814760683742,-0.00949255298641438,-0.019413164434444734,-0.03190214889753729,-0.04582800582040864,-0.05972054710742875,-0.07238398879457522,-0.08253201781841957,-0.08906091608827951,-0.09116831486033641,-0.08821755785280076,-0.08051967383077994,-0.06877551993776826,-0.05415334902785331,-0.03813387190717538,-0.022177062823586946,-0.007872513612684205,0.0035336058382329145,0.011225324485168761,0.014900571045985656,0.014784502590625104,0.011516070069240755,0.005983071733847975,-0.0008253429553241153,-0.007971834197648237,-0.014595202253758226,-0.020246469931996892,-0.02476074324996893,-0.02821891450354926,-0.030844239441282124,-0.03271911226633573,-0.03420597901299456,-0.03560034465912963,-0.037143782015937155,-0.03897730045694815,-0.040865512308303056,-0.04287948865946537,-0.04483489922867994,-0.04640522961418306,-0.04711036147261417,-0.046055259252135626,-0.04295070774191782,-0.037480160454536976,-0.029674943418553812,0.0,0.0,0.0,0.0,0.0,0.0,0.0,0.0,0.0,0.0,0.0,0.0,0.0,0.0,0.0,0.0,0.0,0.0,0.0,0.0,0.0,0.0,0.0,0.0,0.0,0.0,0.0,0.0,0.0,0.0,0.0,0.0,0.0,0.0,0.0,0.0,0.0,0.0,0.0,0.0,0.0,0.0,0.0,0.0,0.0,0.0,0.0,0.0,0.0,0.0,0.0,0.0,0.0,0.0,0.0,0.0,0.0,0.0,0.0,0.0,0.0,0.0,0.0,0.0,0.0,0.0,0.0,0.0,0.0,0.0,0.0,0.0,0.0,0.0,0.0,0.0,0.0,0.0,0.0,0.0,0.0,0.0,0.0,0.0,0.0,0.0,0.0,0.0,0.0,0.0,0.0,0.0,0.0,0.0,0.0,0.0,0.0,0.0,0.0,0.0,0.0,0.0,0.0,0.0,0.0,0.0,0.0,0.0,0.0,0.0,0.0,0.0,0.0,0.0,0.0,0.0,0.0,0.0,0.0,0.0,0.0,0.0,0.0,0.0,0.0,0.0,0.0,0.0,0.0,0.0,0.0,0.0,0.0,0.0,0.0,0.0,0.0,0.0,0.0,0.0,0.0,0.0,0.0,0.0,0.0,0.0,0.0,0.0,0.0,0.0,0.0,0.0,0.0,0.0,0.0,0.0,0.0,0.0,0.0,0.0,0.0,0.0,0.0,0.0,0.0,0.0,0.0,0.0,0.0,0.0,0.0,0.0,0.0,0.0,0.0,0.0,0.0,0.0,0.0,0.0,0.0,0.0,0.0,0.0,0.0,0.0,0.0,0.0,0.0,0.0,0.0,0.0
-0.0817209153869104,-0.07632767504626731,-0.06685135306660617,-0.05465371799928166,-0.04122988582185149,-0.027969064127045317,-0.01633775943435614,-0.007415466823089105,-0.001978851598600536,-0.00048769678048085505,-0.003004814760683742,-0.00949255298641438,-0.019413164434444734,-0.03190214889753729,-0.04582800582040864,-0.05972054710742875,-0.07238398879457522,-0.08253201781841957,-0.08906091608827951,-0.09116831486033641,-0.08821755785280076,-0.08051967383077994,-0.06877551993776826,-0.05415334902785331,-0.03813387190717538,-0.022177062823586946,-0.007872513612684205,0.0035336058382329145,0.011225324485168761,0.014900571045985656,0.014784502590625104,0.011516070069240755,0.005983071733847975,-0.0008253429553241153,-0.007971834197648237,-0.014595202253758226,-0.020246469931996892,-0.02476074324996893,-0.02821891450354926,-0.030844239441282124,-0.03271911226633573,-0.03420597901299456,-0.03560034465912963,-0.037143782015937155,-0.03897730045694815,-0.040865512308303056,-0.04287948865946537,-0.04483489922867994,-0.04640522961418306,-0.04711036147261417,-0.046055259252135626,-0.04295070774191782,-0.037480160454536976,-0.029674943418553812,-0.020033436220317096,-0.009337002664345182,0.0006830185859920917,0.008082014500267277,0.010809281563661307,0.007043489031979973,-0.004297009381874388,-0.023777966756181695,-0.050897047888010395,-0.08413537820560531,-0.12105437356820323,-0.1583528689828159,-0.19277734996073273,-0.22106460135729922,-0.24047878045845694,-0.24915223616838642,-0.24612727914385463,-0.23206802364376114,-0.20864988130671053,-0.17853091548625943,-0.14503700618857882,-0.11164002353027026,-0.0819481405715357,-0.05897307907718664,-0.0449098579909163,-0.040921776208771236,-0.046983325995225665,-0.06212240839510978,-0.08445774063704926,-0.11149294812410121,-0.14044806636471308,-0.16847815460106227,-0.19346173114733073,-0.21393922285790745,-0.2293426164033067,-0.23997435652065494,-0.2466080947828553,-0.2508727839787571,-0.25434454320730343,-0.25832009692226804,-0.26351404571217024,-0.2696854793865888,-0.27631807698165023,-0.28227526326685975,-0.28624276720925085,-0.2870537349036856,-0.28376260947706183,-0.2764500954598929,-0.26571594184255704,-0.2526867426047644,-0.23875855713496205,-0.22521033830287987,-0.2131974096815389,-0.20336640456264085,0.0,0.0,0.0,0.0,0.0,0.0,0.0,0.0,0.0,0.0,0.0,0.0,0.0,0.0,0.0,0.0,0.0,0.0,0.0,0.0,0.0,0.0,0.0,0.0,0.0,0.0,0.0,0.0,0.0,0.0,0.0,0.0,0.0,0.0,0.0,0.0,0.0,0.0,0.0,0.0,0.0,0.0,0.0,0.0,0.0,0.0,0.0,0.0,0.0,0.0,0.0,0.0,0.0,0.0,0.0,0.0,0.0,0.0,0.0,0.0,0.0,0.0,0.0,0.0,0.0,0.0,0.0,0.0,0.0,0.0,0.0,0.0,0.0,0.0,0.0,0.0,0.0,0.0,0.0,0.0,0.0,0.0,0.0,0.0,0.0,0.0,0.0,0.0,0.0,0.0,0.0,0.0,0.0,0.0,0.0,0.0,0.0,0.0,0.0,0.0,0.0,0.0,0.0,0.0,0.0,0.0,0.0,0.0,0.0,0.0,0.0,0.0,0.0,0.0,0.0,0.0,0.0,0.0,0.0,0.0,0.0,0.0,0.0,0.0,0.0,0.0,0.0,0.0,0.0,0.0,0.0,0.0,0.0,0.0,0.0,0.0,0.0,0.0,0.0,0.0,0.0,0.0,0.0,0.0,0.0,0.0,0.0,0.0,0.0,0.0,0.0,0.0,0.0,0.0,0.0,0.0,0.0,0.0,0.0,0.0,0.0,0.0,0.0,0.0,0.0,0.0,0.0,0.0,0.0,0.0,0.0,0.0,0.0,0.0,0.0,0.0,0.0,0.0,0.0,0.0,0.0,0.0,0.0,0.0,0.0,0.0,0.0,0.0,0.0,0.0,0.0,0.0
-0.19277734996073273,-0.22106460135729922,-0.24047878045845694,-0.24915223616838642,-0.24612727914385463,-0.23206802364376114,-0.20864988130671053,-0.17853091548625943,-0.14503700618857882,-0.11164002353027026,-0.0819481405715357,-0.05897307907718664,-0.0449098579909163,-0.040921776208771236,-0.046983325995225665,-0.06212240839510978,-0.08445774063704926,-0.11149294812410121,-0.14044806636471308,-0.16847815460106227,-0.19346173114733073,-0.21393922285790745,-0.2293426164033067,-0.23997435652065494,-0.2466080947828553,-0.2508727839787571,-0.25434454320730343,-0.25832009692226804,-0.26351404571217024,-0.2696854793865888,-0.27631807698165023,-0.28227526326685975,-0.28624276720925085,-0.2870537349036856,-0.28376260947706183,-0.2764500954598929,-0.26571594184255704,-0.2526867426047644,-0.23875855713496205,-0.22521033830287987,-0.2131974096815389,-0.20336640456264085,-0.19587386219817288,-0.1904633793662385,-0.1866608249271262,-0.1838439486730081,-0.18149290200242557,-0.17925864926135404,-0.17697942402732017,-0.17454866811640854,-0.1721121641981902,-0.16961503345794843,-0.1668592015511314,-0.16349546868840187,-0.1588759251644459,-0.1528507868095494,-0.14510229647174164,-0.13556688273010215,-0.12456751167042003,-0.11280538372251275,-0.10159427970093085,-0.09236724593583488,-0.08661217937382804,-0.08563955465243815,-0.09039934004262488,-0.10111495660560185,-0.11723416200449233,-0.13743397767577223,-0.15978323554756524,-0.18206433982212622,-0.20210924445797657,-0.21805193675401094,-0.22873641129933814,-0.2339269164426923,-0.23432613358219684,-0.23147079769172318,-0.22703893635327238,-0.22259338390585293,-0.21921970282614436,-0.21726577838770242,-0.2163763336101508,-0.21520469871140635,-0.21189143468153396,-0.2045124892095964,-0.1915304358274641,-0.1723367209704039,-0.14703404612303594,-0.11669779140925053,-0.08328885617052043,-0.04937269030614124,-0.017959557453342736,0.008317084937068559,0.027377467407940403,0.03793477686855555,0.039673206285479476,0.03301567251281352,0.019416145274833003,0.0010006820626256652,-0.019713851388872588,-0.04006935193589022,-0.05777245237458892,-0.0707642266383874,-0.07755509813649623,-0.07736247964630072,-0.07011982789492599,-0.056656432476044724,-0.03824476732172138,-0.016566967952768564,0.0,0.0,0.0,0.0,0.0,0.0,0.0,0.0,0.0,0.0,0.0,0.0,0.0,0.0,0.0,0.0,0.0,0.0,0.0,0.0,0.0,0.0,0.0,0.0,0.0,0.0,0.0,0.0,0.0,0.0,0.0,0.0,0.0,0.0,0.0,0.0,0.0,0.0,0.0,0.0,0.0,0.0,0.0,0.0,0.0,0.0,0.0,0.0,0.0,0.0,0.0,0.0,0.0,0.0,0.0,0.0,0.0,0.0,0.0,0.0,0.0,0.0,0.0,0.0,0.0,0.0,0.0,0.0,0.0,0.0,0.0,0.0,0.0,0.0,0.0,0.0,0.0,0.0,0.0,0.0,0.0,0.0,0.0,0.0,0.0,0.0,0.0,0.0,0.0,0.0,0.0,0.0,0.0,0.0,0.0,0.0,0.0,0.0,0.0,0.0,0.0,0.0,0.0,0.0,0.0,0.0,0.0,0.0,0.0,0.0,0.0,0.0,0.0,0.0,0.0,0.0,0.0,0.0,0.0,0.0,0.0,0.0,0.0,0.0,0.0,0.0,0.0,0.0,0.0,0.0,0.0,0.0,0.0,0.0,0.0,0.0,0.0,0.0,0.0,0.0,0.0,0.0,0.0,0.0,0.0,0.0,0.0,0.0,0.0,0.0,0.0,0.0,0.0,0.0,0.0,0.0,0.0,0.0,0.0,0.0,0.0,0.0,0.0,0.0,0.0,0.0,0.0,0.0,0.0,0.0,0.0,0.0,0.0,0.0,0.0,0.0,0.0,0.0,0.0,0.0,0.0,0.0,0.0,0.0,0.0,0.0,0.0,0.0,0.0,0.0,0.0,0.0
-0.23147079769172318,-0.22703893635327238,-0.22259338390585293,-0.21921970282614436,-0.21726577838770242,-0.2163763336101508,-0.21520469871140635,-0.21189143468153396,-0.2045124892095964,-0.1915304358274641,-0.1723367209704039,-0.14703404612303594,-0.11669779140925053,-0.08328885617052043,-0.04937269030614124,-0.017959557453342736,0.008317084937068559,0.027377467407940403,0.03793477686855555,0.039673206285479476,0.03301567251281352,0.019416145274833003,0.0010006820626256652,-0.019713851388872588,-0.04006935193589022,-0.05777245237458892,-0.0707642266383874,-0.07755509813649623,-0.07736247964630072,-0.07011982789492599,-0.056656432476044724,-0.03824476732172138,-0.016566967952768564,0.006486940941313585,0.02903603134142209,0.04944164421896178,0.06664916205339612,0.08022351934078595,0.09033636152892789,0.09756674824433811,0.102901698290654,0.10743134731791253,0.11207962801251638,0.11739148386633289,0.12337993805836658,0.12963714859302006,0.13560226991315422,0.14068433791653462,0.1444466062037379,0.14672007056612663,0.14760082830679155,0.14767153111496562,0.1476640049642899,0.1481892486732398,0.1495031083292267,0.15126287921109696,0.1528622393291898,0.15341024720811586,0.1519318911427417,0.14764101361174678,0.13998753217584364,0.12915487064164194,0.11590424447064417,0.10142027494696221,0.08707067763962628,0.07409018246674565,0.06347094332235985,0.0557427443565628,0.050908658751182716,0.04847178147852507,0.047666925197341815,0.047565138544445475,0.04733883458508758,0.04645914283044268,0.044785066663773694,0.04268120382812933,0.040887979232832744,0.04035440148074326,0.04200962690970264,0.0464883753908182,0.05405565564229541,0.06452267946313493,0.07722360277831417,0.09111036500759692,0.10482504296275341,0.11725726622731883,0.12751623191925954,0.1351529415056316,0.1402111031054912,0.14299421750526095,0.14446056415196615,0.14549548246374544,0.14684091705896835,0.14891103990835142,0.15150190086354504,0.15440646574403546,0.15692952623089632,0.15824657176384943,0.15761097671121166,0.15433443771420804,0.1485800340593644,0.14072267989006598,0.13148204889783952,0.12176296830219598,0.11228384211528923,0.10390588849776058,0.09690518698012604,0.0911007432128015,0.0,0.0,0.0,0.0,0.0,0.0,0.0,0.0,0.0,0.0,0.0,0.0,0.0,0.0,0.0,0.0,0.0,0.0,0.0,0.0,0.0,0.0,0.0,0.0,0.0,0.0,0.0,0.0,0.0,0.0,0.0,0.0,0.0,0.0,0.0,0.0,0.0,0.0,0.0,0.0,0.0,0.0,0.0,0.0,0.0,0.0,0.0,0.0,0.0,0.0,0.0,0.0,0.0,0.0,0.0,0.0,0.0,0.0,0.0,0.0,0.0,0.0,0.0,0.0,0.0,0.0,0.0,0.0,0.0,0.0,0.0,0.0,0.0,0.0,0.0,0.0,0.0,0.0,0.0,0.0,0.0,0.0,0.0,0.0,0.0,0.0,0.0,0.0,0.0,0.0,0.0,0.0,0.0,0.0,0.0,0.0,0.0,0.0,0.0,0.0,0.0,0.0,0.0,0.0,0.0,0.0,0.0,0.0,0.0,0.0,0.0,0.0,0.0,0.0,0.0,0.0,0.0,0.0,0.0,0.0,0.0,0.0,0.0,0.0,0.0,0.0,0.0,0.0,0.0,0.0,0.0,0.0,0.0,0.0,0.0,0.0,0.0,0.0,0.0,0.0,0.0,0.0,0.0,0.0,0.0,0.0,0.0,0.0,0.0,0.0,0.0,0.0,0.0,0.0,0.0,0.0,0.0,0.0,0.0,0.0,0.0,0.0,0.0,0.0,0.0,0.0,0.0,0.0,0.0,0.0,0.0,0.0,0.0,0.0,0.0,0.0,0.0,0.0,0.0,0.0,0.0,0.0,0.0,0.0,0.0,0.0,0.0,0.0,0.0,0.0,0.0,0.0
0.021195885165684866,0.011724880634448268,0.005536989729281267,0.003559612736592029,0.006135979882783552,0.013090675549563797,0.023603994106686243,0.03642379252590648,0.05010309842201199,0.06325926244370775,0.07485168158957617,0.08426441016485886,0.09140284087873227,0.09664658410743195,0.10073018095193038,0.10446403865122822,0.10851705760520848,0.11326001163134024,0.11869334738975765,0.1244340013176701,0.13002075600456275,0.1348579293615895,0.13848892744105912,0.14074011067208336,0.1417011760702009,0.14194975627891868,0.14204958540034832,0.14250766526707967,0.14361465287232936,0.14525593321708094,0.14717097511541774,0.14862439045680645,0.14869526266768718,0.14648919507257535,0.14127230254401937,0.13295132102143772,0.12175177352433586,0.10836099057103424,0.09383171304268009,0.07933604536353248,0.06617287951674707,0.05522502095373961,0.04691720289777792,0.04117423101278485,0.03745271327250117,0.03508466224176348,0.03327989661348821,0.0314232373292271,0.029217053477230706,0.026673634858661574,0.02408530436394312,0.021698583725923405,0.019536493919217877,0.017259875941676574,0.014173905858005185,0.009412139550745642,0.0022339613721433296,-0.007628754023796256,-0.019712130106117953,-0.032778346169663033,-0.04489568231453334,-0.05397086947397668,-0.05822462756144691,-0.05668413615391247,-0.049546309436657214,-0.03801477630459432,-0.024267904806879275,-0.01084065564113889,0.0,0.0,0.0,0.0,0.0,0.0,0.0,0.0,0.0,0.0,0.0,0.0,0.0,0.0,0.0,0.0,0.0,0.0,0.0,0.0,0.0,0.0,0.0,0.0,0.0,0.0,0.0,0.0,0.0,0.0,0.0,0.0,0.0,0.0,0.0,0.0,0.0,0.0,0.0,0.0,0.0,0.0,0.0,0.0,0.0,0.0,0.0,0.0,0.0,0.0,0.0,0.0,0.0,0.0,0.0,0.0,0.0,0.0,0.0,0.0,0.0,0.0,0.0,0.0,0.0,0.0,0.0,0.0,0.0,0.0,0.0,0.0,0.0,0.0,0.0,0.0,0.0,0.0,0.0,0.0,0.0,0.0,0.0,0.0,0.0,0.0,0.0,0.0,0.0,0.0,0.0,0.0,0.0,0.0,0.0,0.0,0.0,0.0,0.0,0.0,0.0,0.0,0.0,0.0,0.0,0.0,0.0,0.0,0.0,0.0,0.0,0.0,0.0,0.0,0.0,0.0,0.0,0.0,0.0,0.0,0.0,0.0,0.0,0.0,0.0,0.0,0.0,0.0,0.0,0.0,0.0,0.0,0.0,0.0,0.0,0.0,0.0,0.0,0.0,0.0,0.0,0.0,0.0,0.0,0.0,0.0,0.0,0.0,0.0,0.0,0.0,0.0,0.0,0.0,0.0,0.0,0.0,0.0,0.0,0.0,0.0,0.0,0.0,0.0,0.0,0.0,0.0,0.0,0.0,0.0,0.0,0.0,0.0,0.0,0.0,0.0,0.0,0.0,0.0,0.0,0.0,0.0,0.0,0.0,0.0,0.0,0.0,0.0,0.0,0.0,0.0,0.0,0.0,0.0,0.0,0.0,0.0,0.0,0.0,0.0,0.0,0.0,0.0,0.0,0.0,0.0,0.0,0.0,0.0,0.0,0.0,0.0,0.0,0.0,0.0,0.0,0.0,0.0,0.0,0.0,0.0,0.0,0.0,0.0,0.0,0.0,0.0,0.0,0.0,0.0,0.0,0.0
