0.2753367175020565,0.2704929498693902,0.2655879404284398,0.26020308036980877,0.25495858251999975,0.24989073438660284,0.24500227252849816,0.24028067373626477,0.2353702448896326,0.2308026246306651,0.22647773227050788,0.22223655568969666,0.21793828239220966,0.21320487015676548,0.20858246914026124,0.20410327059943464,0.19977516865803202,0.1955958910481545,0.19127123750819316,0.18726859099220783,0.18349531828973945,0.17980197198895992,0.17605471622256044,0.17192698056827452,0.167887958406879,0.16396663419577423,0.16017391543632348,0.1565135413969664,0.15274676261433803,0.14927246638829314,0.14600624114593988,0.14281173963984725,0.13956653151087361,0.13599629523417286,0.13249639773941277,0.12909282085848622,0.12579808082230703,0.12261952162478085,0.11936734313980059,0.11637464748923604,0.11356534960950149,0.11081732377367784,0.10802120874418245,0.10495207760728699,0.10193820240353693,0.0990033862908867,0.09616157507314299,0.09342289586358403,0.0906404848820965,0.08808745115496537,0.08569553448060115,0.08335610886108422,0.08097213115525878,0.07836215862781094,0.07579391394670895,0.07328855218954863,0.07086045232007268,0.06852136644693353,0.06616089795139612,0.0639991524090663,0.06197562988433983,0.0,0.0,0.0,0.0,0.0,0.0,0.0,0.0,0.0,0.0,0.0,0.0,0.0,0.0,0.0,0.0,0.0,0.0,0.0,0.0,0.0,0.0,0.0,0.0,0.0,0.0,0.0,0.0,0.0,0.0,0.0,0.0,0.0,0.0,0.0,0.0,0.0,0.0,0.0,0.0,0.0,0.0,0.0,0.0,0.0,0.0,0.0,0.0,0.0,0.0,0.0,0.0,0.0,0.0,0.0,0.0,0.0,0.0,0.0,0.0,0.0,0.0,0.0,0.0,0.0,0.0,0.0,0.0,0.0,0.0,0.0,0.0,0.0,0.0,0.0,0.0,0.0,0.0,0.0,0.0,0.0,0.0,0.0,0.0,0.0,0.0,0.0,0.0,0.0,0.0,0.0,0.0,0.0,0.0,0.0,0.0,0.0,0.0,0.0,0.0,0.0,0.0,0.0,0.0,0.0,0.0,0.0,0.0,0.0,0.0,0.0,0.0,0.0,0.0,0.0,0.0,0.0,0.0,0.0,0.0,0.0,0.0,0.0,0.0,0.0,0.0,0.0,0.0,0.0,0.0,0.0,0.0,0.0,0.0,0.0,0.0,0.0,0.0,0.0,0.0,0.0,0.0,0.0,0.0,0.0,0.0,0.0,0.0,0.0,0.0,0.0,0.0,0.0,0.0,0.0,0.0,0.0,0.0,0.0,0.0,0.0,0.0,0.0,0.0,0.0,0.0,0.0,0.0,0.0,0.0,0.0,0.0,0.0,0.0,0.0,0.0,0.0,0.0,0.0,0.0,0.0,0.0,0.0,0.0,0.0,0.0,0.0,0.0,0.0,0.0,0.0,0.0,0.0,0.0,0.0,0.0,0.0,0.0,0.0,0.0,0.0,0.0,0.0,0.0,0.0,0.0,0.0,0.0,0.0,0.0,0.0,0.0,0.0,0.0,0.0,0.0,0.0,0.0,0.0,0.0,0.0,0.0,0.0,0.0,0.0,0.0,0.0,0.0,0.0,0.0,0.0,0.0,0.0,0.0,0.0,0.0,0.0,0.0,0.0
0.011344872154271397,0.011343794876219823,0.011347730897630854,0.011357223149634483,0.011371533764261985,0.01138900558740849,0.011390712571670743,0.01139483607342211,0.011402746842472465,0.011415430162614516,0.011433139020545584,0.011438366738559774,0.01144949356106941,0.011466977127324017,0.01148998512124482,0.011516640258125677,0.011527719132139411,0.01154077325870128,0.011556738904360023,0.011576396871995033,0.01160014149570577,0.011611020896614926,0.011628060405589783,0.01165251506799424,0.011684102049043327,0.011720974969148616,0.011743173174842185,0.011767149488008019,0.011792186271715223,0.011817375848403694,0.01184180844259146,0.01184769056725172,0.011854772628900587,0.011865400549417893,0.0118809016274131,0.011901196760379566,0.01190781209403508,0.011918088527786617,0.011931448123837765,0.011946331478134694,0.011960585078167671,0.011955152611949394,0.011948065861540708,0.011941121177283135,0.011935963195455724,0.011933619024129654,0.011917301758812436,0.01190602616116591,0.011900931945298695,0.011901692767834607,0.011906652970091637,0.011896322378361503,0.011887872924360285,0.011881711550427075,0.011878037977067102,0.011876729006787117,0.011860259031971092,0.011847842918131693,0.011841255376008893,0.0118411339757412,0.011846805043482594,0.0,0.0,0.0,0.0,0.0,0.0,0.0,0.0,0.0,0.0,0.0,0.0,0.0,0.0,0.0,0.0,0.0,0.0,0.0,0.0,0.0,0.0,0.0,0.0,0.0,0.0,0.0,0.0,0.0,0.0,0.0,0.0,0.0,0.0,0.0,0.0,0.0,0.0,0.0,0.0,0.0,0.0,0.0,0.0,0.0,0.0,0.0,0.0,0.0,0.0,0.0,0.0,0.0,0.0,0.0,0.0,0.0,0.0,0.0,0.0,0.0,0.0,0.0,0.0,0.0,0.0,0.0,0.0,0.0,0.0,0.0,0.0,0.0,0.0,0.0,0.0,0.0,0.0,0.0,0.0,0.0,0.0,0.0,0.0,0.0,0.0,0.0,0.0,0.0,0.0,0.0,0.0,0.0,0.0,0.0,0.0,0.0,0.0,0.0,0.0,0.0,0.0,0.0,0.0,0.0,0.0,0.0,0.0,0.0,0.0,0.0,0.0,0.0,0.0,0.0,0.0,0.0,0.0,0.0,0.0,0.0,0.0,0.0,0.0,0.0,0.0,0.0,0.0,0.0,0.0,0.0,0.0,0.0,0.0,0.0,0.0,0.0,0.0,0.0,0.0,0.0,0.0,0.0,0.0,0.0,0.0,0.0,0.0,0.0,0.0,0.0,0.0,0.0,0.0,0.0,0.0,0.0,0.0,0.0,0.0,0.0,0.0,0.0,0.0,0.0,0.0,0.0,0.0,0.0,0.0,0.0,0.0,0.0,0.0,0.0,0.0,0.0,0.0,0.0,0.0,0.0,0.0,0.0,0.0,0.0,0.0,0.0,0.0,0.0,0.0,0.0,0.0,0.0,0.0,0.0,0.0,0.0,0.0,0.0,0.0,0.0,0.0,0.0,0.0,0.0,0.0,0.0,0.0,0.0,0.0,0.0,0.0,0.0,0.0,0.0,0.0,0.0,0.0,0.0,0.0,0.0,0.0,0.0,0.0,0.0,0.0,0.0,0.0,0.0,0.0,0.0,0.0,0.0,0.0,0.0,0.0,0.0,0.0,0.0
0.01330341800894636,0.013290116568403065,0.013301265368653814,0.01331402056085829,0.013346203995105757,0.013394297169171397,0.013453367078282675,0.0135178113188931,0.013561790451466188,0.01360437026871059,0.01364642964971554,0.013689385159430188,0.013734357269132389,0.013761052117107068,0.013792225222686893,0.013829853205983629,0.01387425925001278,0.013924053089998691,0.01395593763085576,0.013990364758025464,0.014028010945025355,0.014069222631224548,0.014113748910864993,0.014139962785111438,0.014170145375869504,0.014206081506528846,0.014248301092390916,0.014295810479450593,0.01432551676285655,0.014358270526408904,0.014394652455769782,0.0144347144493515,0.01447787204803619,0.014502118103996686,0.0145299708588175,0.014563422175484928,0.014603290199080002,0.014648808405179495,0.014676658109115942,0.014707858618728475,0.014742542130986306,0.014780192751643573,0.014819744762322798,0.014838621752182606,0.014860022358203594,0.014886373524206768,0.014919053744247185,0.014957805418175997,0.014979425839453987,0.015004953774555125,0.015033962165436395,0.01506499559309586,0.015095866074029195,0.015103038375736273,0.015108857999928418,0.015115823303270309,0.015126104121756818,0.015140807945684683,0.015138297705073864,0.015141386497332035,0.015151002529692379,0.0,0.0,0.0,0.0,0.0,0.0,0.0,0.0,0.0,0.0,0.0,0.0,0.0,0.0,0.0,0.0,0.0,0.0,0.0,0.0,0.0,0.0,0.0,0.0,0.0,0.0,0.0,0.0,0.0,0.0,0.0,0.0,0.0,0.0,0.0,0.0,0.0,0.0,0.0,0.0,0.0,0.0,0.0,0.0,0.0,0.0,0.0,0.0,0.0,0.0,0.0,0.0,0.0,0.0,0.0,0.0,0.0,0.0,0.0,0.0,0.0,0.0,0.0,0.0,0.0,0.0,0.0,0.0,0.0,0.0,0.0,0.0,0.0,0.0,0.0,0.0,0.0,0.0,0.0,0.0,0.0,0.0,0.0,0.0,0.0,0.0,0.0,0.0,0.0,0.0,0.0,0.0,0.0,0.0,0.0,0.0,0.0,0.0,0.0,0.0,0.0,0.0,0.0,0.0,0.0,0.0,0.0,0.0,0.0,0.0,0.0,0.0,0.0,0.0,0.0,0.0,0.0,0.0,0.0,0.0,0.0,0.0,0.0,0.0,0.0,0.0,0.0,0.0,0.0,0.0,0.0,0.0,0.0,0.0,0.0,0.0,0.0,0.0,0.0,0.0,0.0,0.0,0.0,0.0,0.0,0.0,0.0,0.0,0.0,0.0,0.0,0.0,0.0,0.0,0.0,0.0,0.0,0.0,0.0,0.0,0.0,0.0,0.0,0.0,0.0,0.0,0.0,0.0,0.0,0.0,0.0,0.0,0.0,0.0,0.0,0.0,0.0,0.0,0.0,0.0,0.0,0.0,0.0,0.0,0.0,0.0,0.0,0.0,0.0,0.0,0.0,0.0,0.0,0.0,0.0,0.0,0.0,0.0,0.0,0.0,0.0,0.0,0.0,0.0,0.0,0.0,0.0,0.0,0.0,0.0,0.0,0.0,0.0,0.0,0.0,0.0,0.0,0.0,0.0,0.0,0.0,0.0,0.0,0.0,0.0,0.0,0.0,0.0,0.0,0.0,0.0,0.0,0.0,0.0,0.0,0.0,0.0,0.0,0.0
0.01506499559309586,0.015095866074029195,0.015103038375736273,0.015108857999928418,0.015115823303270309,0.015126104121756818,0.015140807945684683,0.015138297705073864,0.015141386497332035,0.015151002529692379,0.015166482739612186,0.015185749817340168,0.015184445881653727,0.015184336898186324,0.015186619084236084,0.015192221265034573,0.015201411654235138,0.015192088973840978,0.0151879071383773,0.015190668782824738,0.015200765015397088,0.015217073491130106,0.015215628543788988,0.015218641545803957,0.015226772476937097,0.015239940499567157,0.015257211719898663,0.015255208303514215,0.015257210661033227,0.015264727131003214,0.015278304760457807,0.015297349948667216,0.015298449423837847,0.015304840621642406,0.015317571270561582,0.015336544566757536,0.01536043898190267,0.015365078767526028,0.01537332275658757,0.015385950341459967,0.01540296044675714,0.01542352801513813,0.015424227894834686,0.015429018960350992,0.01543947051861841,0.015455977067989818,0.015477583965103884,0.015480199755074711,0.015486886068656057,0.015498119916661578,0.015513455496550593,0.015531639915069638,0.015528926046668622,0.015529409121052032,0.015534753551400956,0.015545588056840394,0.015561285272033508,0.01555810718254337,0.015559475806931865,0.01556592980973674,0.015576907163331028,0.0,0.0,0.0,0.0,0.0,0.0,0.0,0.0,0.0,0.0,0.0,0.0,0.0,0.0,0.0,0.0,0.0,0.0,0.0,0.0,0.0,0.0,0.0,0.0,0.0,0.0,0.0,0.0,0.0,0.0,0.0,0.0,0.0,0.0,0.0,0.0,0.0,0.0,0.0,0.0,0.0,0.0,0.0,0.0,0.0,0.0,0.0,0.0,0.0,0.0,0.0,0.0,0.0,0.0,0.0,0.0,0.0,0.0,0.0,0.0,0.0,0.0,0.0,0.0,0.0,0.0,0.0,0.0,0.0,0.0,0.0,0.0,0.0,0.0,0.0,0.0,0.0,0.0,0.0,0.0,0.0,0.0,0.0,0.0,0.0,0.0,0.0,0.0,0.0,0.0,0.0,0.0,0.0,0.0,0.0,0.0,0.0,0.0,0.0,0.0,0.0,0.0,0.0,0.0,0.0,0.0,0.0,0.0,0.0,0.0,0.0,0.0,0.0,0.0,0.0,0.0,0.0,0.0,0.0,0.0,0.0,0.0,0.0,0.0,0.0,0.0,0.0,0.0,0.0,0.0,0.0,0.0,0.0,0.0,0.0,0.0,0.0,0.0,0.0,0.0,0.0,0.0,0.0,0.0,0.0,0.0,0.0,0.0,0.0,0.0,0.0,0.0,0.0,0.0,0.0,0.0,0.0,0.0,0.0,0.0,0.0,0.0,0.0,0.0,0.0,0.0,0.0,0.0,0.0,0.0,0.0,0.0,0.0,0.0,0.0,0.0,0.0,0.0,0.0,0.0,0.0,0.0,0.0,0.0,0.0,0.0,0.0,0.0,0.0,0.0,0.0,0.0,0.0,0.0,0.0,0.0,0.0,0.0,0.0,0.0,0.0,0.0,0.0,0.0,0.0,0.0,0.0,0.0,0.0,0.0,0.0,0.0,0.0,0.0,0.0,0.0,0.0,0.0,0.0,0.0,0.0,0.0,0.0,0.0,0.0,0.0,0.0,0.0,0.0,0.0,0.0,0.0,0.0,0.0,0.0,0.0,0.0,0.0,0.0
0.015531639915069638,0.015528926046668622,0.015529409121052032,0.015534753551400956,0.015545588056840394,0.015561285272033508,0.01555810718254337,0.015559475806931865,0.01556592980973674,0.015576907163331028,0.015590930628997378,0.015584076428344237,0.015580244909290632,0.01558095704166503,0.015586806510948854,0.015597250500117158,0.015588845752961282,0.015585168984679437,0.015586889900139431,0.015593511753923197,0.01560357037123694,0.015593287645175521,0.015586402184802589,0.015584297016052876,0.015587411591745233,0.015595072409747923,0.015583883287681313,0.01557733406481121,0.01557607031592511,0.015579614004975994,0.015586574448258905,0.015573377992527544,0.015563873381358794,0.015559490448955377,0.01556064234463571,0.01556656162842147,0.015554067503372683,0.015546163866899032,0.01554302824923688,0.015543718806481801,0.015546548808584037,0.015528584838488388,0.015513421360705236,0.015502572840129425,0.01549658379074062,0.015494896132167386,0.015474962533112533,0.015459962802092287,0.015450311085601217,0.015445252663892147,0.015443243455750738,0.01542142816785964,0.01540348963905568,0.01539083123029014,0.015383763857883277,0.015381399400213205,0.015360850476039396,0.01534490052332137,0.015333545643199005,0.015325683854031743,0.01531955534467567,0.0,0.0,0.0,0.0,0.0,0.0,0.0,0.0,0.0,0.0,0.0,0.0,0.0,0.0,0.0,0.0,0.0,0.0,0.0,0.0,0.0,0.0,0.0,0.0,0.0,0.0,0.0,0.0,0.0,0.0,0.0,0.0,0.0,0.0,0.0,0.0,0.0,0.0,0.0,0.0,0.0,0.0,0.0,0.0,0.0,0.0,0.0,0.0,0.0,0.0,0.0,0.0,0.0,0.0,0.0,0.0,0.0,0.0,0.0,0.0,0.0,0.0,0.0,0.0,0.0,0.0,0.0,0.0,0.0,0.0,0.0,0.0,0.0,0.0,0.0,0.0,0.0,0.0,0.0,0.0,0.0,0.0,0.0,0.0,0.0,0.0,0.0,0.0,0.0,0.0,0.0,0.0,0.0,0.0,0.0,0.0,0.0,0.0,0.0,0.0,0.0,0.0,0.0,0.0,0.0,0.0,0.0,0.0,0.0,0.0,0.0,0.0,0.0,0.0,0.0,0.0,0.0,0.0,0.0,0.0,0.0,0.0,0.0,0.0,0.0,0.0,0.0,0.0,0.0,0.0,0.0,0.0,0.0,0.0,0.0,0.0,0.0,0.0,0.0,0.0,0.0,0.0,0.0,0.0,0.0,0.0,0.0,0.0,0.0,0.0,0.0,0.0,0.0,0.0,0.0,0.0,0.0,0.0,0.0,0.0,0.0,0.0,0.0,0.0,0.0,0.0,0.0,0.0,0.0,0.0,0.0,0.0,0.0,0.0,0.0,0.0,0.0,0.0,0.0,0.0,0.0,0.0,0.0,0.0,0.0,0.0,0.0,0.0,0.0,0.0,0.0,0.0,0.0,0.0,0.0,0.0,0.0,0.0,0.0,0.0,0.0,0.0,0.0,0.0,0.0,0.0,0.0,0.0,0.0,0.0,0.0,0.0,0.0,0.0,0.0,0.0,0.0,0.0,0.0,0.0,0.0,0.0,0.0,0.0,0.0,0.0,0.0,0.0,0.0,0.0,0.0,0.0,0.0,0.0,0.0,0.0,0.0,0.0,0.0
0.01542142816785964,0.01540348963905568,0.01539083123029014,0.015383763857883277,0.015381399400213205,0.015360850476039396,0.01534490052332137,0.015333545643199005,0.015325683854031743,0.01531955534467567,0.015292359058118635,0.0152678166639087,0.015247480611653427,0.015231883158980185,0.01522042987724049,0.015190768650366294,0.015166017873996795,0.015146637094518,0.015132087889855006,0.01512130440980531,0.015092503882173603,0.015070019866537334,0.015055889797221519,0.01505066203805146,0.015053047113043937,0.015039316286134443,0.015029697896517915,0.015020862363587746,0.015007778686391252,0.014984789816282562,0.014926499762893604,0.014854684858678632,0.014771309547711295,0.014679725865380876,0.014584466002085732,0.014470582925218533,0.014368127266996369,0.01428407704495238,0.014222484029030355,0.014184142187888901,0.014146809055503914,0.014130429208993205,0.014131252379828242,0.014143637782742474,0.014161230204673057,0.014158467611886865,0.014155077526485227,0.01415057689181314,0.014144902600051338,0.014138318221457214,0.014111919340181557,0.014090003270921131,0.014074645926955297,0.014065932755952604,0.014062226275642367,0.014041839459664085,0.014025211073000816,0.014011419875960041,0.013998912834653092,0.01398613432982752,0.013953465239789334,0.0,0.0,0.0,0.0,0.0,0.0,0.0,0.0,0.0,0.0,0.0,0.0,0.0,0.0,0.0,0.0,0.0,0.0,0.0,0.0,0.0,0.0,0.0,0.0,0.0,0.0,0.0,0.0,0.0,0.0,0.0,0.0,0.0,0.0,0.0,0.0,0.0,0.0,0.0,0.0,0.0,0.0,0.0,0.0,0.0,0.0,0.0,0.0,0.0,0.0,0.0,0.0,0.0,0.0,0.0,0.0,0.0,0.0,0.0,0.0,0.0,0.0,0.0,0.0,0.0,0.0,0.0,0.0,0.0,0.0,0.0,0.0,0.0,0.0,0.0,0.0,0.0,0.0,0.0,0.0,0.0,0.0,0.0,0.0,0.0,0.0,0.0,0.0,0.0,0.0,0.0,0.0,0.0,0.0,0.0,0.0,0.0,0.0,0.0,0.0,0.0,0.0,0.0,0.0,0.0,0.0,0.0,0.0,0.0,0.0,0.0,0.0,0.0,0.0,0.0,0.0,0.0,0.0,0.0,0.0,0.0,0.0,0.0,0.0,0.0,0.0,0.0,0.0,0.0,0.0,0.0,0.0,0.0,0.0,0.0,0.0,0.0,0.0,0.0,0.0,0.0,0.0,0.0,0.0,0.0,0.0,0.0,0.0,0.0,0.0,0.0,0.0,0.0,0.0,0.0,0.0,0.0,0.0,0.0,0.0,0.0,0.0,0.0,0.0,0.0,0.0,0.0,0.0,0.0,0.0,0.0,0.0,0.0,0.0,0.0,0.0,0.0,0.0,0.0,0.0,0.0,0.0,0.0,0.0,0.0,0.0,0.0,0.0,0.0,0.0,0.0,0.0,0.0,0.0,0.0,0.0,0.0,0.0,0.0,0.0,0.0,0.0,0.0,0.0,0.0,0.0,0.0,0.0,0.0,0.0,0.0,0.0,0.0,0.0,0.0,0.0,0.0,0.0,0.0,0.0,0.0,0.0,0.0,0.0,0.0,0.0,0.0,0.0,0.0,0.0,0.0,0.0,0.0,0.0,0.0,0.0,0.0,0.0,0.0
0.014090003270921131,0.014074645926955297,0.014065932755952604,0.014062226275642367,0.014041839459664085,0.014025211073000816,0.014011419875960041,0.013998912834653092,0.01398613432982752,0.013953465239789334,0.01392364466371299,0.013898414210733448,0.01387816662093937,0.013862016947002714,0.013830028648670493,0.013802680703209353,0.01377929969222661,0.013758280846749257,0.013737899564177907,0.013699290407061257,0.013664413284985645,0.013634874798574666,0.01361093842561437,0.013591538984792236,0.01355729610643153,0.013527432217064286,0.013500399049130805,0.013473739058046908,0.013445178405406561,0.013396662951114057,0.013349888365574337,0.01330709109620572,0.013269335055081495,0.013236316741201137,0.013190192011130347,0.013149091868848823,0.013110687305532318,0.013071330249862111,0.013027455076995714,0.012961212490581471,0.012892361121205141,0.012823156322486425,0.012755486415703957,0.012690546439859552,0.012613467278785062,0.012543151468039648,0.012478507129487833,0.012416524032809554,0.012353637802723388,0.012272380823330644,0.012190780588005393,0.012109647501330456,0.012029565312014955,0.011950954069619841,0.01185991357550427,0.011775167988604191,0.011696442170685255,0.011621697315996686,0.01154827033651629,0.011460364873736136,0.011375209166109486,0.0,0.0,0.0,0.0,0.0,0.0,0.0,0.0,0.0,0.0,0.0,0.0,0.0,0.0,0.0,0.0,0.0,0.0,0.0,0.0,0.0,0.0,0.0,0.0,0.0,0.0,0.0,0.0,0.0,0.0,0.0,0.0,0.0,0.0,0.0,0.0,0.0,0.0,0.0,0.0,0.0,0.0,0.0,0.0,0.0,0.0,0.0,0.0,0.0,0.0,0.0,0.0,0.0,0.0,0.0,0.0,0.0,0.0,0.0,0.0,0.0,0.0,0.0,0.0,0.0,0.0,0.0,0.0,0.0,0.0,0.0,0.0,0.0,0.0,0.0,0.0,0.0,0.0,0.0,0.0,0.0,0.0,0.0,0.0,0.0,0.0,0.0,0.0,0.0,0.0,0.0,0.0,0.0,0.0,0.0,0.0,0.0,0.0,0.0,0.0,0.0,0.0,0.0,0.0,0.0,0.0,0.0,0.0,0.0,0.0,0.0,0.0,0.0,0.0,0.0,0.0,0.0,0.0,0.0,0.0,0.0,0.0,0.0,0.0,0.0,0.0,0.0,0.0,0.0,0.0,0.0,0.0,0.0,0.0,0.0,0.0,0.0,0.0,0.0,0.0,0.0,0.0,0.0,0.0,0.0,0.0,0.0,0.0,0.0,0.0,0.0,0.0,0.0,0.0,0.0,0.0,0.0,0.0,0.0,0.0,0.0,0.0,0.0,0.0,0.0,0.0,0.0,0.0,0.0,0.0,0.0,0.0,0.0,0.0,0.0,0.0,0.0,0.0,0.0,0.0,0.0,0.0,0.0,0.0,0.0,0.0,0.0,0.0,0.0,0.0,0.0,0.0,0.0,0.0,0.0,0.0,0.0,0.0,0.0,0.0,0.0,0.0,0.0,0.0,0.0,0.0,0.0,0.0,0.0,0.0,0.0,0.0,0.0,0.0,0.0,0.0,0.0,0.0,0.0,0.0,0.0,0.0,0.0,0.0,0.0,0.0,0.0,0.0,0.0,0.0,0.0,0.0,0.0,0.0,0.0,0.0,0.0,0.0,0.0
0.012109647501330456,0.012029565312014955,0.011950954069619841,0.01185991357550427,0.011775167988604191,0.011696442170685255,0.011621697315996686,0.01154827033651629,0.011460364873736136,0.011375209166109486,0.011292880915994542,0.011212832472552905,0.01113430399524074,0.011043625589926163,0.010958041969939325,0.010876955982258577,0.010798441180402012,0.010720337653965191,0.01062879908100316,0.010540664346719592,0.010456129546893438,0.01037444322972767,0.010294451841114827,0.010203319741260954,0.010116780677022612,0.010033653573587542,0.009951643703166311,0.00986856602826446,0.009772207285806684,0.009678746883982882,0.009588584276481259,0.009501088338296994,0.009415174032784187,0.009319436562397629,0.009228290722057966,0.009140089403678947,0.00905207510317832,0.008961782037303911,0.008858475125104784,0.008757180830626132,0.00865831094234186,0.008561340903095476,0.008465415967558256,0.008361055300403443,0.008261445669721361,0.008164807275052009,0.008068198566501986,0.0079690498978126,0.007858390326976066,0.007749708323989109,0.007643274478992426,0.007538474548978863,0.007434451665402801,0.00732358299818394,0.007217290829206194,0.007113387481031266,0.007008521089832355,0.006899853432993003,0.006780245270673713,0.006661443415481392,0.006543656598736711,0.0,0.0,0.0,0.0,0.0,0.0,0.0,0.0,0.0,0.0,0.0,0.0,0.0,0.0,0.0,0.0,0.0,0.0,0.0,0.0,0.0,0.0,0.0,0.0,0.0,0.0,0.0,0.0,0.0,0.0,0.0,0.0,0.0,0.0,0.0,0.0,0.0,0.0,0.0,0.0,0.0,0.0,0.0,0.0,0.0,0.0,0.0,0.0,0.0,0.0,0.0,0.0,0.0,0.0,0.0,0.0,0.0,0.0,0.0,0.0,0.0,0.0,0.0,0.0,0.0,0.0,0.0,0.0,0.0,0.0,0.0,0.0,0.0,0.0,0.0,0.0,0.0,0.0,0.0,0.0,0.0,0.0,0.0,0.0,0.0,0.0,0.0,0.0,0.0,0.0,0.0,0.0,0.0,0.0,0.0,0.0,0.0,0.0,0.0,0.0,0.0,0.0,0.0,0.0,0.0,0.0,0.0,0.0,0.0,0.0,0.0,0.0,0.0,0.0,0.0,0.0,0.0,0.0,0.0,0.0,0.0,0.0,0.0,0.0,0.0,0.0,0.0,0.0,0.0,0.0,0.0,0.0,0.0,0.0,0.0,0.0,0.0,0.0,0.0,0.0,0.0,0.0,0.0,0.0,0.0,0.0,0.0,0.0,0.0,0.0,0.0,0.0,0.0,0.0,0.0,0.0,0.0,0.0,0.0,0.0,0.0,0.0,0.0,0.0,0.0,0.0,0.0,0.0,0.0,0.0,0.0,0.0,0.0,0.0,0.0,0.0,0.0,0.0,0.0,0.0,0.0,0.0,0.0,0.0,0.0,0.0,0.0,0.0,0.0,0.0,0.0,0.0,0.0,0.0,0.0,0.0,0.0,0.0,0.0,0.0,0.0,0.0,0.0,0.0,0.0,0.0,0.0,0.0,0.0,0.0,0.0,0.0,0.0,0.0,0.0,0.0,0.0,0.0,0.0,0.0,0.0,0.0,0.0,0.0,0.0,0.0,0.0,0.0,0.0,0.0,0.0,0.0,0.0,0.0,0.0,0.0,0.0,0.0,0.0
0.007538474548978863,0.007434451665402801,0.00732358299818394,0.007217290829206194,0.007113387481031266,0.007008521089832355,0.006899853432993003,0.006780245270673713,0.006661443415481392,0.006543656598736711,0.006426380647012581,0.006309073475013956,0.0061865817857363605,0.00606883605519056,0.005953678263727582,0.005837753316240348,0.005718293517034911,0.00559045242335689,0.005464090446344333,0.005339126608283519,0.0052147319347300445,0.005090098674629503,0.00496204490402083,0.00483825340141183,0.004716015254344641,0.004591541811629846,0.004461903832224094,0.0043245877486244675,0.004187696719944654,0.004051200173727657,0.0039143995504576515,0.0037767345979382123,0.0036378006321772685,0.0035031925404481997,0.0033698568463380097,0.0032336637957895787,0.003091565363652331,0.002943962598555979,0.002796738098902412,0.0026496716853728394,0.002501868837159214,0.0023526661179885736,0.002204202068922728,0.0020597243296338634,0.0019158217942593426,0.0017681555234595424,0.0016137668723248159,0.0014557653559819283,0.001298305320423008,0.001141313259124159,0.0009839566446217278,0.0008255221935499181,0.0006703348788557434,0.0005187368275142634,0.0003661240553861377,0.00020693755502635783,3.727751477502042e-05,-0.00013767958971956304,-0.0003162222194838301,-0.0004983073780368523,-0.000684106349010146,0.0,0.0,0.0,0.0,0.0,0.0,0.0,0.0,0.0,0.0,0.0,0.0,0.0,0.0,0.0,0.0,0.0,0.0,0.0,0.0,0.0,0.0,0.0,0.0,0.0,0.0,0.0,0.0,0.0,0.0,0.0,0.0,0.0,0.0,0.0,0.0,0.0,0.0,0.0,0.0,0.0,0.0,0.0,0.0,0.0,0.0,0.0,0.0,0.0,0.0,0.0,0.0,0.0,0.0,0.0,0.0,0.0,0.0,0.0,0.0,0.0,0.0,0.0,0.0,0.0,0.0,0.0,0.0,0.0,0.0,0.0,0.0,0.0,0.0,0.0,0.0,0.0,0.0,0.0,0.0,0.0,0.0,0.0,0.0,0.0,0.0,0.0,0.0,0.0,0.0,0.0,0.0,0.0,0.0,0.0,0.0,0.0,0.0,0.0,0.0,0.0,0.0,0.0,0.0,0.0,0.0,0.0,0.0,0.0,0.0,0.0,0.0,0.0,0.0,0.0,0.0,0.0,0.0,0.0,0.0,0.0,0.0,0.0,0.0,0.0,0.0,0.0,0.0,0.0,0.0,0.0,0.0,0.0,0.0,0.0,0.0,0.0,0.0,0.0,0.0,0.0,0.0,0.0,0.0,0.0,0.0,0.0,0.0,0.0,0.0,0.0,0.0,0.0,0.0,0.0,0.0,0.0,0.0,0.0,0.0,0.0,0.0,0.0,0.0,0.0,0.0,0.0,0.0,0.0,0.0,0.0,0.0,0.0,0.0,0.0,0.0,0.0,0.0,0.0,0.0,0.0,0.0,0.0,0.0,0.0,0.0,0.0,0.0,0.0,0.0,0.0,0.0,0.0,0.0,0.0,0.0,0.0,0.0,0.0,0.0,0.0,0.0,0.0,0.0,0.0,0.0,0.0,0.0,0.0,0.0,0.0,0.0,0.0,0.0,0.0,0.0,0.0,0.0,0.0,0.0,0.0,0.0,0.0,0.0,0.0,0.0,0.0,0.0,0.0,0.0,0.0,0.0,0.0,0.0,0.0,0.0,0.0,0.0,0.0
0.0008255221935499181,0.0006703348788557434,0.0005187368275142634,0.0003661240553861377,0.00020693755502635783,3.727751477502042e-05,-0.00013767958971956304,-0.0003162222194838301,-0.0004983073780368523,-0.000684106349010146,-0.0008731301223266404,-0.0010568314182148241,-0.0012358250178096577,-0.0014136884133061148,-0.0015951728502483435,-0.001783537759428301,-0.0019703804944107535,-0.0021565160772868074,-0.0023425045250752272,-0.002529385466945803,-0.002717741407476625,-0.002897561311261245,-0.0030740561702005623,-0.0032536230376469647,-0.0034441521063478513,-0.0036519450555249485,-0.0038682068411795612,-0.004098049127428509,-0.004342430513997384,-0.004600726165357492,-0.004869502681656889,-0.005129607075316557,-0.005381627265906143,-0.005624480772739471,-0.0058592394260938,-0.006087060307788829,-0.006293492674986619,-0.006487340705543108,-0.006673921889944197,-0.0068595355157964714,-0.007049116898350492,-0.007228825702334589,-0.0074101453018609225,-0.007598314244470336,-0.00779805790782415,-0.008011173488912155,-0.008217664460611084,-0.008425680419413262,-0.008636111000008443,-0.008850704721026118,-0.009070380432505992,-0.009274778083737351,-0.009477353800809284,-0.009683775258652109,-0.009900078031341703,-0.010129587376099829,-0.010349853417401907,-0.010573397761818764,-0.010801872465873127,-0.011037092391749027,-0.011279344953018779,0.0,0.0,0.0,0.0,0.0,0.0,0.0,0.0,0.0,0.0,0.0,0.0,0.0,0.0,0.0,0.0,0.0,0.0,0.0,0.0,0.0,0.0,0.0,0.0,0.0,0.0,0.0,0.0,0.0,0.0,0.0,0.0,0.0,0.0,0.0,0.0,0.0,0.0,0.0,0.0,0.0,0.0,0.0,0.0,0.0,0.0,0.0,0.0,0.0,0.0,0.0,0.0,0.0,0.0,0.0,0.0,0.0,0.0,0.0,0.0,0.0,0.0,0.0,0.0,0.0,0.0,0.0,0.0,0.0,0.0,0.0,0.0,0.0,0.0,0.0,0.0,0.0,0.0,0.0,0.0,0.0,0.0,0.0,0.0,0.0,0.0,0.0,0.0,0.0,0.0,0.0,0.0,0.0,0.0,0.0,0.0,0.0,0.0,0.0,0.0,0.0,0.0,0.0,0.0,0.0,0.0,0.0,0.0,0.0,0.0,0.0,0.0,0.0,0.0,0.0,0.0,0.0,0.0,0.0,0.0,0.0,0.0,0.0,0.0,0.0,0.0,0.0,0.0,0.0,0.0,0.0,0.0,0.0,0.0,0.0,0.0,0.0,0.0,0.0,0.0,0.0,0.0,0.0,0.0,0.0,0.0,0.0,0.0,0.0,0.0,0.0,0.0,0.0,0.0,0.0,0.0,0.0,0.0,0.0,0.0,0.0,0.0,0.0,0.0,0.0,0.0,0.0,0.0,0.0,0.0,0.0,0.0,0.0,0.0,0.0,0.0,0.0,0.0,0.0,0.0,0.0,0.0,0.0,0.0,0.0,0.0,0.0,0.0,0.0,0.0,0.0,0.0,0.0,0.0,0.0,0.0,0.0,0.0,0.0,0.0,0.0,0.0,0.0,0.0,0.0,0.0,0.0,0.0,0.0,0.0,0.0,0.0,0.0,0.0,0.0,0.0,0.0,0.0,0.0,0.0,0.0,0.0,0.0,0.0,0.0,0.0,0.0,0.0,0.0,0.0,0.0,0.0,0.0,0.0,0.0,0.0,0.0,0.0,0.0
-0.009274778083737351,-0.009477353800809284,-0.009683775258652109,-0.009900078031341703,-0.010129587376099829,-0.010349853417401907,-0.010573397761818764,-0.010801872465873127,-0.011037092391749027,-0.011279344953018779,-0.011503374008908244,-0.011725204086702242,-0.011950070280450755,-0.012183699898121647,-0.012429102529937728,-0.012659604024515091,-0.012891405767228853,-0.013126736783699623,-0.013368088913543687,-0.0136164127979724,-0.013843173088584373,-0.014069038409981386,-0.014300529313628916,-0.014544320337085394,-0.014803723066007073,-0.015047682335887613,-0.015295435621900767,-0.015548581706066156,-0.015808819932057502,-0.016076302229871615,-0.016317803112309317,-0.016558288310586727,-0.01680546834336272,-0.01706746426802013,-0.017348881393736162,-0.01761515801920489,-0.017890350151350556,-0.018176122397505833,-0.01847332431003222,-0.018780431776552108,-0.019057835064106517,-0.01933282866332639,-0.019612182990440947,-0.01990364866924752,-0.020211982159368053,-0.020499065758169618,-0.02079408869664411,-0.021100430398430476,-0.02142023602628718,-0.02175241036705829,-0.022052540540915166,-0.022350901216712224,-0.022653206104778775,-0.02296598125786116,-0.023292838574748523,-0.02359057970230718,-0.023892743662361285,-0.024203999651040867,-0.024528074862447232,-0.024865262793838504,-0.0251676214828654,0.0,0.0,0.0,0.0,0.0,0.0,0.0,0.0,0.0,0.0,0.0,0.0,0.0,0.0,0.0,0.0,0.0,0.0,0.0,0.0,0.0,0.0,0.0,0.0,0.0,0.0,0.0,0.0,0.0,0.0,0.0,0.0,0.0,0.0,0.0,0.0,0.0,0.0,0.0,0.0,0.0,0.0,0.0,0.0,0.0,0.0,0.0,0.0,0.0,0.0,0.0,0.0,0.0,0.0,0.0,0.0,0.0,0.0,0.0,0.0,0.0,0.0,0.0,0.0,0.0,0.0,0.0,0.0,0.0,0.0,0.0,0.0,0.0,0.0,0.0,0.0,0.0,0.0,0.0,0.0,0.0,0.0,0.0,0.0,0.0,0.0,0.0,0.0,0.0,0.0,0.0,0.0,0.0,0.0,0.0,0.0,0.0,0.0,0.0,0.0,0.0,0.0,0.0,0.0,0.0,0.0,0.0,0.0,0.0,0.0,0.0,0.0,0.0,0.0,0.0,0.0,0.0,0.0,0.0,0.0,0.0,0.0,0.0,0.0,0.0,0.0,0.0,0.0,0.0,0.0,0.0,0.0,0.0,0.0,0.0,0.0,0.0,0.0,0.0,0.0,0.0,0.0,0.0,0.0,0.0,0.0,0.0,0.0,0.0,0.0,0.0,0.0,0.0,0.0,0.0,0.0,0.0,0.0,0.0,0.0,0.0,0.0,0.0,0.0,0.0,0.0,0.0,0.0,0.0,0.0,0.0,0.0,0.0,0.0,0.0,0.0,0.0,0.0,0.0,0.0,0.0,0.0,0.0,0.0,0.0,0.0,0.0,0.0,0.0,0.0,0.0,0.0,0.0,0.0,0.0,0.0,0.0,0.0,0.0,0.0,0.0,0.0,0.0,0.0,0.0,0.0,0.0,0.0,0.0,0.0,0.0,0.0,0.0,0.0,0.0,0.0,0.0,0.0,0.0,0.0,0.0,0.0,0.0,0.0,0.0,0.0,0.0,0.0,0.0,0.0,0.0,0.0,0.0,0.0,0.0,0.0,0.0,0.0,0.0
-0.022350901216712224,-0.022653206104778775,-0.02296598125786116,-0.023292838574748523,-0.02359057970230718,-0.023892743662361285,-0.024203999651040867,-0.024528074862447232,-0.024865262793838504,-0.0251676214828654,-0.02547023703468108,-0.025779193053617717,-0.026100744986708405,-0.026437687012928486,-0.02674128114375233,-0.027048802135384846,-0.027365076782213265,-0.027694237749796864,-0.028037012364135756,-0.02834126621244656,-0.02864699345765606,-0.02896100476917142,-0.029289901109052285,-0.029636337715343027,-0.029946494027251462,-0.03026175786515439,-0.030587040141911836,-0.030926477380870645,-0.03128060697114992,-0.031592322300113905,-0.03190604636571113,-0.032228893611743616,-0.032567637189314956,-0.03292487622695682,-0.03324190825098085,-0.033564768155120724,-0.03389878508361582,-0.03424831689931043,-0.03461379251531036,-0.03493300074065791,-0.035254887213247973,-0.03558668081517821,-0.035935142074397484,-0.0363027088036639,-0.03662569466534098,-0.03695514904400073,-0.03729690578496935,-0.03765559220384508,-0.038031541504196464,-0.038669270520848266,-0.039320187380687634,-0.03980592407463737,-0.039966796300448124,-0.03976037420472902,-0.039888612359069923,-0.04013052656266825,-0.04051852776054426,-0.041011447295855076,-0.041518076611694606,-0.042632962117235475,-0.043671359036520654,0.0,0.0,0.0,0.0,0.0,0.0,0.0,0.0,0.0,0.0,0.0,0.0,0.0,0.0,0.0,0.0,0.0,0.0,0.0,0.0,0.0,0.0,0.0,0.0,0.0,0.0,0.0,0.0,0.0,0.0,0.0,0.0,0.0,0.0,0.0,0.0,0.0,0.0,0.0,0.0,0.0,0.0,0.0,0.0,0.0,0.0,0.0,0.0,0.0,0.0,0.0,0.0,0.0,0.0,0.0,0.0,0.0,0.0,0.0,0.0,0.0,0.0,0.0,0.0,0.0,0.0,0.0,0.0,0.0,0.0,0.0,0.0,0.0,0.0,0.0,0.0,0.0,0.0,0.0,0.0,0.0,0.0,0.0,0.0,0.0,0.0,0.0,0.0,0.0,0.0,0.0,0.0,0.0,0.0,0.0,0.0,0.0,0.0,0.0,0.0,0.0,0.0,0.0,0.0,0.0,0.0,0.0,0.0,0.0,0.0,0.0,0.0,0.0,0.0,0.0,0.0,0.0,0.0,0.0,0.0,0.0,0.0,0.0,0.0,0.0,0.0,0.0,0.0,0.0,0.0,0.0,0.0,0.0,0.0,0.0,0.0,0.0,0.0,0.0,0.0,0.0,0.0,0.0,0.0,0.0,0.0,0.0,0.0,0.0,0.0,0.0,0.0,0.0,0.0,0.0,0.0,0.0,0.0,0.0,0.0,0.0,0.0,0.0,0.0,0.0,0.0,0.0,0.0,0.0,0.0,0.0,0.0,0.0,0.0,0.0,0.0,0.0,0.0,0.0,0.0,0.0,0.0,0.0,0.0,0.0,0.0,0.0,0.0,0.0,0.0,0.0,0.0,0.0,0.0,0.0,0.0,0.0,0.0,0.0,0.0,0.0,0.0,0.0,0.0,0.0,0.0,0.0,0.0,0.0,0.0,0.0,0.0,0.0,0.0,0.0,0.0,0.0,0.0,0.0,0.0,0.0,0.0,0.0,0.0,0.0,0.0,0.0,0.0,0.0,0.0,0.0,0.0,0.0,0.0,0.0,0.0,0.0,0.0,0.0
-0.03980592407463737,-0.039966796300448124,-0.03976037420472902,-0.039888612359069923,-0.04013052656266825,-0.04051852776054426,-0.041011447295855076,-0.041518076611694606,-0.042632962117235475,-0.043671359036520654,-0.044261817752126655,-0.0441317207151205,-0.04327577901866019,-0.04284674430767392,-0.04270789622310401,-0.043063226455387085,-0.04391511695843132,-0.045060608093644185,-0.04701651450620263,-0.048681822415831584,-0.049393029169157235,-0.04874643822849099,-0.04684543716862817,-0.04525034291136541,-0.044242016882782544,-0.044428843772955535,-0.04600266642751077,-0.0486261875242861,-0.05237643112608696,-0.055462055524836684,-0.05654192290613766,-0.0547985621609413,-0.05040693787994402,-0.04556123465521055,-0.04171550011961016,-0.040854218503310925,-0.044314973288798507,-0.052158931911582225,-0.0636167414937747,-0.07466131395985016,-0.08027612157989712,-0.07495486919480353,-0.05391092594322042,-0.015021775311001451,0.04272480172928059,0.11723308000461131,0.2039725010285319,0.29668859231569694,0.38770278787595547,0.4713426798175359,0.5433352669067589,0.6018023238707652,0.6472881105746143,0.6815559622555971,0.7088774119114551,0.7334499410677151,0.7587524850210225,0.7867472630934143,0.8168392385218766,0.8480598927901551,0.8781801387726768,0.0,0.0,0.0,0.0,0.0,0.0,0.0,0.0,0.0,0.0,0.0,0.0,0.0,0.0,0.0,0.0,0.0,0.0,0.0,0.0,0.0,0.0,0.0,0.0,0.0,0.0,0.0,0.0,0.0,0.0,0.0,0.0,0.0,0.0,0.0,0.0,0.0,0.0,0.0,0.0,0.0,0.0,0.0,0.0,0.0,0.0,0.0,0.0,0.0,0.0,0.0,0.0,0.0,0.0,0.0,0.0,0.0,0.0,0.0,0.0,0.0,0.0,0.0,0.0,0.0,0.0,0.0,0.0,0.0,0.0,0.0,0.0,0.0,0.0,0.0,0.0,0.0,0.0,0.0,0.0,0.0,0.0,0.0,0.0,0.0,0.0,0.0,0.0,0.0,0.0,0.0,0.0,0.0,0.0,0.0,0.0,0.0,0.0,0.0,0.0,0.0,0.0,0.0,0.0,0.0,0.0,0.0,0.0,0.0,0.0,0.0,0.0,0.0,0.0,0.0,0.0,0.0,0.0,0.0,0.0,0.0,0.0,0.0,0.0,0.0,0.0,0.0,0.0,0.0,0.0,0.0,0.0,0.0,0.0,0.0,0.0,0.0,0.0,0.0,0.0,0.0,0.0,0.0,0.0,0.0,0.0,0.0,0.0,0.0,0.0,0.0,0.0,0.0,0.0,0.0,0.0,0.0,0.0,0.0,0.0,0.0,0.0,0.0,0.0,0.0,0.0,0.0,0.0,0.0,0.0,0.0,0.0,0.0,0.0,0.0,0.0,0.0,0.0,0.0,0.0,0.0,0.0,0.0,0.0,0.0,0.0,0.0,0.0,0.0,0.0,0.0,0.0,0.0,0.0,0.0,0.0,0.0,0.0,0.0,0.0,0.0,0.0,0.0,0.0,0.0,0.0,0.0,0.0,0.0,0.0,0.0,0.0,0.0,0.0,0.0,0.0,0.0,0.0,0.0,0.0,0.0,0.0,0.0,0.0,0.0,0.0,0.0,0.0,0.0,0.0,0.0,0.0,0.0,0.0,0.0,0.0,0.0,0.0,0.0
0.6018023238707652,0.6472881105746143,0.6815559622555971,0.7088774119114551,0.7334499410677151,0.7587524850210225,0.7867472630934143,0.8168392385218766,0.8480598927901551,0.8781801387726768,0.9048307369255798,0.9262064156122142,0.9408983007746404,0.9499396481044348,0.9551680712515322,0.9589542814353288,0.9634284660968252,0.9692055966768595,0.9768428165106406,0.9855876127979021,0.9940395871451914,1.0006505165814363,1.0036532731539394,1.0030977731651485,0.9996924232170237,0.994812652980689,0.9899760322011781,0.985753255255205,0.982980259504292,0.981512278627487,0.9806251102306965,0.9793015478209198,0.9760765903636068,0.9708174610024335,0.9637806324072568,0.9557305430239181,0.9476088965743329,0.9396847968745795,0.9326708092803718,0.9266269518258632,0.9212309198485958,0.9159162453277462,0.9096247481558385,0.9022885045190113,0.8940032236711795,0.8851744197674162,0.8763194279857047,0.867245627664508,0.8587974391228703,0.8510318619274211,0.8437768386883607,0.8367226106436633,0.8287761121315206,0.8206648431032053,0.8123621182685966,0.8039255753779806,0.7954713194897086,0.7863149983462528,0.7776250220906262,0.769455871540333,0.7617133621395604,0.0,0.0,0.0,0.0,0.0,0.0,0.0,0.0,0.0,0.0,0.0,0.0,0.0,0.0,0.0,0.0,0.0,0.0,0.0,0.0,0.0,0.0,0.0,0.0,0.0,0.0,0.0,0.0,0.0,0.0,0.0,0.0,0.0,0.0,0.0,0.0,0.0,0.0,0.0,0.0,0.0,0.0,0.0,0.0,0.0,0.0,0.0,0.0,0.0,0.0,0.0,0.0,0.0,0.0,0.0,0.0,0.0,0.0,0.0,0.0,0.0,0.0,0.0,0.0,0.0,0.0,0.0,0.0,0.0,0.0,0.0,0.0,0.0,0.0,0.0,0.0,0.0,0.0,0.0,0.0,0.0,0.0,0.0,0.0,0.0,0.0,0.0,0.0,0.0,0.0,0.0,0.0,0.0,0.0,0.0,0.0,0.0,0.0,0.0,0.0,0.0,0.0,0.0,0.0,0.0,0.0,0.0,0.0,0.0,0.0,0.0,0.0,0.0,0.0,0.0,0.0,0.0,0.0,0.0,0.0,0.0,0.0,0.0,0.0,0.0,0.0,0.0,0.0,0.0,0.0,0.0,0.0,0.0,0.0,0.0,0.0,0.0,0.0,0.0,0.0,0.0,0.0,0.0,0.0,0.0,0.0,0.0,0.0,0.0,0.0,0.0,0.0,0.0,0.0,0.0,0.0,0.0,0.0,0.0,0.0,0.0,0.0,0.0,0.0,0.0,0.0,0.0,0.0,0.0,0.0,0.0,0.0,0.0,0.0,0.0,0.0,0.0,0.0,0.0,0.0,0.0,0.0,0.0,0.0,0.0,0.0,0.0,0.0,0.0,0.0,0.0,0.0,0.0,0.0,0.0,0.0,0.0,0.0,0.0,0.0,0.0,0.0,0.0,0.0,0.0,0.0,0.0,0.0,0.0,0.0,0.0,0.0,0.0,0.0,0.0,0.0,0.0,0.0,0.0,0.0,0.0,0.0,0.0,0.0,0.0,0.0,0.0,0.0,0.0,0.0,0.0,0.0,0.0,0.0,0.0,0.0,0.0,0.0,0.0
0.5787839669539621,0.5722966916482688,0.5657967485565837,0.558424276595177,0.5513097672116857,0.5444942435985306,0.5379563328012472,0.5316464908933382,0.5247834025803625,0.5183910323789833,0.5123645447844851,0.5065104124864258,0.5006433775465466,0.49397012709778815,0.4875196633347249,0.4813284094198953,0.47538108296034787,0.4696402641997552,0.46341207311039706,0.4576288919079711,0.4521923676903031,0.4469188536187486,0.4416313999658327,0.43561355663898854,0.429790451696046,0.4241948320138721,0.41881537735424423,0.4136225357319103,0.40800319764052284,0.4027944607776264,0.3979052942269038,0.3931655220890668,0.3884109475470381,0.38300213785224974,0.3777640236134485,0.37272591478605865,0.36787906338957427,0.3631993593621659,0.35814730954473323,0.35346801061072824,0.3490779226487309,0.34482151361545327,0.340549015034992,0.3356945047611528,0.3309900287383809,0.3264623200215145,0.3221050375638926,0.3178986707078182,0.31337064878062876,0.3091804656096972,0.3052516337447475,0.3014425914863822,0.29761725569818187,0.2932766238474327,0.28906701666594387,0.2850121578330861,0.2811071298439207,0.2773358406885456,0.27328546571863216,0.26953752267379444,0.2660225740659756,0.0,0.0,0.0,0.0,0.0,0.0,0.0,0.0,0.0,0.0,0.0,0.0,0.0,0.0,0.0,0.0,0.0,0.0,0.0,0.0,0.0,0.0,0.0,0.0,0.0,0.0,0.0,0.0,0.0,0.0,0.0,0.0,0.0,0.0,0.0,0.0,0.0,0.0,0.0,0.0,0.0,0.0,0.0,0.0,0.0,0.0,0.0,0.0,0.0,0.0,0.0,0.0,0.0,0.0,0.0,0.0,0.0,0.0,0.0,0.0,0.0,0.0,0.0,0.0,0.0,0.0,0.0,0.0,0.0,0.0,0.0,0.0,0.0,0.0,0.0,0.0,0.0,0.0,0.0,0.0,0.0,0.0,0.0,0.0,0.0,0.0,0.0,0.0,0.0,0.0,0.0,0.0,0.0,0.0,0.0,0.0,0.0,0.0,0.0,0.0,0.0,0.0,0.0,0.0,0.0,0.0,0.0,0.0,0.0,0.0,0.0,0.0,0.0,0.0,0.0,0.0,0.0,0.0,0.0,0.0,0.0,0.0,0.0,0.0,0.0,0.0,0.0,0.0,0.0,0.0,0.0,0.0,0.0,0.0,0.0,0.0,0.0,0.0,0.0,0.0,0.0,0.0,0.0,0.0,0.0,0.0,0.0,0.0,0.0,0.0,0.0,0.0,0.0,0.0,0.0,0.0,0.0,0.0,0.0,0.0,0.0,0.0,0.0,0.0,0.0,0.0,0.0,0.0,0.0,0.0,0.0,0.0,0.0,0.0,0.0,0.0,0.0,0.0,0.0,0.0,0.0,0.0,0.0,0.0,0.0,0.0,0.0,0.0,0.0,0.0,0.0,0.0,0.0,0.0,0.0,0.0,0.0,0.0,0.0,0.0,0.0,0.0,0.0,0.0,0.0,0.0,0.0,0.0,0.0,0.0,0.0,0.0,0.0,0.0,0.0,0.0,0.0,0.0,0.0,0.0,0.0,0.0,0.0,0.0,0.0,0.0,0.0,0.0,0.0,0.0,0.0,0.0,0.0,0.0,0.0,0.0,0.0,0.0,0.0
0.3014425914863822,0.29761725569818187,0.2932766238474327,0.28906701666594387,0.2850121578330861,0.2811071298439207,0.2773358406885456,0.27328546571863216,0.26953752267379444,0.2660225740659756,0.26261290729345577,0.25918619402335863,0.2553053353840795,0.2515393935011128,0.24790981238754137,0.24441316489168616,0.24103654735817168,0.23742188794354985,0.23407968314999827,0.23094679346438152,0.22790778841564174,0.22485227316042136,0.22139812145205667,0.21804361273655273,0.2148070981238648,0.21168551480640738,0.20866799896267108,0.20544437832083112,0.20246163688799565,0.19966307697655525,0.19694563389281186,0.1942112142916378,0.19112811810298702,0.18813251635617917,0.18524098976698516,0.18245132203396536,0.1797544296206045,0.17688235967519886,0.1742241616124539,0.17172786778730423,0.16930056901229262,0.1668546010303813,0.16410325755996347,0.1614277698415619,0.15884477840453906,0.156355282836416,0.15395477244015807,0.1514159851325745,0.14907864043574265,0.14689642125368435,0.14478508567397863,0.14266347138337374,0.14027942121939738,0.13795709988656402,0.13570344918177396,0.13351187010087273,0.13137217032658938,0.12908577435189106,0.12694496024563443,0.12491025362989451,0.12291277911812955,0.0,0.0,0.0,0.0,0.0,0.0,0.0,0.0,0.0,0.0,0.0,0.0,0.0,0.0,0.0,0.0,0.0,0.0,0.0,0.0,0.0,0.0,0.0,0.0,0.0,0.0,0.0,0.0,0.0,0.0,0.0,0.0,0.0,0.0,0.0,0.0,0.0,0.0,0.0,0.0,0.0,0.0,0.0,0.0,0.0,0.0,0.0,0.0,0.0,0.0,0.0,0.0,0.0,0.0,0.0,0.0,0.0,0.0,0.0,0.0,0.0,0.0,0.0,0.0,0.0,0.0,0.0,0.0,0.0,0.0,0.0,0.0,0.0,0.0,0.0,0.0,0.0,0.0,0.0,0.0,0.0,0.0,0.0,0.0,0.0,0.0,0.0,0.0,0.0,0.0,0.0,0.0,0.0,0.0,0.0,0.0,0.0,0.0,0.0,0.0,0.0,0.0,0.0,0.0,0.0,0.0,0.0,0.0,0.0,0.0,0.0,0.0,0.0,0.0,0.0,0.0,0.0,0.0,0.0,0.0,0.0,0.0,0.0,0.0,0.0,0.0,0.0,0.0,0.0,0.0,0.0,0.0,0.0,0.0,0.0,0.0,0.0,0.0,0.0,0.0,0.0,0.0,0.0,0.0,0.0,0.0,0.0,0.0,0.0,0.0,0.0,0.0,0.0,0.0,0.0,0.0,0.0,0.0,0.0,0.0,0.0,0.0,0.0,0.0,0.0,0.0,0.0,0.0,0.0,0.0,0.0,0.0,0.0,0.0,0.0,0.0,0.0,0.0,0.0,0.0,0.0,0.0,0.0,0.0,0.0,0.0,0.0,0.0,0.0,0.0,0.0,0.0,0.0,0.0,0.0,0.0,0.0,0.0,0.0,0.0,0.0,0.0,0.0,0.0,0.0,0.0,0.0,0.0,0.0,0.0,0.0,0.0,0.0,0.0,0.0,0.0,0.0,0.0,0.0,0.0,0.0,0.0,0.0,0.0,0.0,0.0,0.0,0.0,0.0,0.0,0.0,0.0,0.0,0.0,0.0,0.0,0.0,0.0,0.0
0.14266347138337374,0.14027942121939738,0.13795709988656402,0.13570344918177396,0.13351187010087273,0.13137217032658938,0.12908577435189106,0.12694496024563443,0.12491025362989451,0.12291277911812955,0.12089040017338192,0.11863935203559513,0.11645322246886564,0.11435082528349935,0.11233676026842841,0.11040863002017444,0.10839914642656381,0.10655593518696131,0.1048353414088976,0.10316513113291942,0.10147844425653504,0.09959106525400993,0.09774702795362074,0.09595743798249526,0.09422467043825733,0.09254825849289564,0.09079090120585993,0.08916887811931963,0.0876476369414712,0.08616693340363978,0.0846705258448099,0.08300420058104001,0.08137713982936948,0.07979881116827964,0.07827091627625164,0.07679279319672415,0.07524963229163187,0.07382484279439187,0.07248715246876877,0.0711830726254541,0.06986318128744305,0.06839847271622729,0.06696709930159835,0.06557788492859741,0.0642332093808394,0.06293356937816195,0.06158497362128415,0.06034239104739236,0.0591776982283888,0.05804312029108945,0.05689447535189834,0.055623532769480656,0.05437963090474555,0.05316944570846413,0.05199453816116079,0.05085538132563471,0.04967552882992595,0.04858537597982032,0.04756046979378838,0.046559517756325386,0.045544727155855676,0.0,0.0,0.0,0.0,0.0,0.0,0.0,0.0,0.0,0.0,0.0,0.0,0.0,0.0,0.0,0.0,0.0,0.0,0.0,0.0,0.0,0.0,0.0,0.0,0.0,0.0,0.0,0.0,0.0,0.0,0.0,0.0,0.0,0.0,0.0,0.0,0.0,0.0,0.0,0.0,0.0,0.0,0.0,0.0,0.0,0.0,0.0,0.0,0.0,0.0,0.0,0.0,0.0,0.0,0.0,0.0,0.0,0.0,0.0,0.0,0.0,0.0,0.0,0.0,0.0,0.0,0.0,0.0,0.0,0.0,0.0,0.0,0.0,0.0,0.0,0.0,0.0,0.0,0.0,0.0,0.0,0.0,0.0,0.0,0.0,0.0,0.0,0.0,0.0,0.0,0.0,0.0,0.0,0.0,0.0,0.0,0.0,0.0,0.0,0.0,0.0,0.0,0.0,0.0,0.0,0.0,0.0,0.0,0.0,0.0,0.0,0.0,0.0,0.0,0.0,0.0,0.0,0.0,0.0,0.0,0.0,0.0,0.0,0.0,0.0,0.0,0.0,0.0,0.0,0.0,0.0,0.0,0.0,0.0,0.0,0.0,0.0,0.0,0.0,0.0,0.0,0.0,0.0,0.0,0.0,0.0,0.0,0.0,0.0,0.0,0.0,0.0,0.0,0.0,0.0,0.0,0.0,0.0,0.0,0.0,0.0,0.0,0.0,0.0,0.0,0.0,0.0,0.0,0.0,0.0,0.0,0.0,0.0,0.0,0.0,0.0,0.0,0.0,0.0,0.0,0.0,0.0,0.0,0.0,0.0,0.0,0.0,0.0,0.0,0.0,0.0,0.0,0.0,0.0,0.0,0.0,0.0,0.0,0.0,0.0,0.0,0.0,0.0,0.0,0.0,0.0,0.0,0.0,0.0,0.0,0.0,0.0,0.0,0.0,0.0,0.0,0.0,0.0,0.0,0.0,0.0,0.0,0.0,0.0,0.0,0.0,0.0,0.0,0.0,0.0,0.0,0.0,0.0,0.0,0.0,0.0,0.0,0.0,0.0
0.055623532769480656,0.05437963090474555,0.05316944570846413,0.05199453816116079,0.05085538132563471,0.04967552882992595,0.04858537597982032,0.04756046979378838,0.046559517756325386,0.045544727155855676,0.04442798531910561,0.04333452913511627,0.04227032326129441,0.04123675461807149,0.04023407298607664,0.03920073640073033,0.03824338673080015,0.03733975913879809,0.036453653148168855,0.035552789475061214,0.03456708391316263,0.033601294891251805,0.032661974243436816,0.03175166452243106,0.03087150596404579,0.029973195297319236,0.02914308227419027,0.028360049654986206,0.027591043105483486,0.02680709179304551,0.02595227232546724,0.025112845116844494,0.02429566265878231,0.023504681001724446,0.022742677622045227,0.021973851671845946,0.021267790916259317,0.02060506733080799,0.019955527013527284,0.01929259865197527,0.018571511364270724,0.017860966637752725,0.01716666938030644,0.016492671347215812,0.015842519681905313,0.01519109253986933,0.01459392059038261,0.014034099511212901,0.01348529545374931,0.012924260522062447,0.012316687245353447,0.011716580880776723,0.01112880076730815,0.010557319007589366,0.010006001362219583,0.009458424960927652,0.008957761250526455,0.008489272689058346,0.008030074452884572,0.0075599655491523495,0.007053591715865856,0.0,0.0,0.0,0.0,0.0,0.0,0.0,0.0,0.0,0.0,0.0,0.0,0.0,0.0,0.0,0.0,0.0,0.0,0.0,0.0,0.0,0.0,0.0,0.0,0.0,0.0,0.0,0.0,0.0,0.0,0.0,0.0,0.0,0.0,0.0,0.0,0.0,0.0,0.0,0.0,0.0,0.0,0.0,0.0,0.0,0.0,0.0,0.0,0.0,0.0,0.0,0.0,0.0,0.0,0.0,0.0,0.0,0.0,0.0,0.0,0.0,0.0,0.0,0.0,0.0,0.0,0.0,0.0,0.0,0.0,0.0,0.0,0.0,0.0,0.0,0.0,0.0,0.0,0.0,0.0,0.0,0.0,0.0,0.0,0.0,0.0,0.0,0.0,0.0,0.0,0.0,0.0,0.0,0.0,0.0,0.0,0.0,0.0,0.0,0.0,0.0,0.0,0.0,0.0,0.0,0.0,0.0,0.0,0.0,0.0,0.0,0.0,0.0,0.0,0.0,0.0,0.0,0.0,0.0,0.0,0.0,0.0,0.0,0.0,0.0,0.0,0.0,0.0,0.0,0.0,0.0,0.0,0.0,0.0,0.0,0.0,0.0,0.0,0.0,0.0,0.0,0.0,0.0,0.0,0.0,0.0,0.0,0.0,0.0,0.0,0.0,0.0,0.0,0.0,0.0,0.0,0.0,0.0,0.0,0.0,0.0,0.0,0.0,0.0,0.0,0.0,0.0,0.0,0.0,0.0,0.0,0.0,0.0,0.0,0.0,0.0,0.0,0.0,0.0,0.0,0.0,0.0,0.0,0.0,0.0,0.0,0.0,0.0,0.0,0.0,0.0,0.0,0.0,0.0,0.0,0.0,0.0,0.0,0.0,0.0,0.0,0.0,0.0,0.0,0.0,0.0,0.0,0.0,0.0,0.0,0.0,0.0,0.0,0.0,0.0,0.0,0.0,0.0,0.0,0.0,0.0,0.0,0.0,0.0,0.0,0.0,0.0,0.0,0.0,0.0,0.0,0.0,0.0,0.0,0.0,0.0,0.0,0.0,0.0
0.011716580880776723,0.01112880076730815,0.010557319007589366,0.010006001362219583,0.009458424960927652,0.008957761250526455,0.008489272689058346,0.008030074452884572,0.0075599655491523495,0.007053591715865856,0.006552132795466076,0.006059409117962143,0.005578830894388271,0.005113929736085116,0.004655069998479315,0.004234351197910582,0.003838954737258153,0.0034494460405593104,0.003049071298540767,0.002621160273759353,0.0021968351289902046,0.0017800696044262365,0.00137462136015916,0.0009842128609964184,0.0006051285358089718,0.00025946521739501763,-6.453444385367594e-05,-0.00038410758028156365,-0.0007139028513757195,-0.0010640435096493667,-0.0014127685807400273,-0.0017563435074317516,-0.0020907808191913085,-0.0024120185637478576,-0.002718539820767292,-0.0029963509203233614,-0.003255840310038296,-0.0035119972958270983,-0.003777486906183636,-0.004056933461746382,-0.004336766739189723,-0.004613726448570365,-0.004883866469113851,-0.005142955248619415,-0.005384935040313704,-0.005602570889667306,-0.005804877192050767,-0.006004745840677282,-0.00621305729467087,-0.006430028685930525,-0.006648899251514062,-0.00686678790023945,-0.007079706875133302,-0.007283159340722325,-0.007467656180215702,-0.007631048803338573,-0.00778081309461408,-0.007927779806199178,-0.008081300244271283,-0.008238619596942446,-0.008399227013420189,0.0,0.0,0.0,0.0,0.0,0.0,0.0,0.0,0.0,0.0,0.0,0.0,0.0,0.0,0.0,0.0,0.0,0.0,0.0,0.0,0.0,0.0,0.0,0.0,0.0,0.0,0.0,0.0,0.0,0.0,0.0,0.0,0.0,0.0,0.0,0.0,0.0,0.0,0.0,0.0,0.0,0.0,0.0,0.0,0.0,0.0,0.0,0.0,0.0,0.0,0.0,0.0,0.0,0.0,0.0,0.0,0.0,0.0,0.0,0.0,0.0,0.0,0.0,0.0,0.0,0.0,0.0,0.0,0.0,0.0,0.0,0.0,0.0,0.0,0.0,0.0,0.0,0.0,0.0,0.0,0.0,0.0,0.0,0.0,0.0,0.0,0.0,0.0,0.0,0.0,0.0,0.0,0.0,0.0,0.0,0.0,0.0,0.0,0.0,0.0,0.0,0.0,0.0,0.0,0.0,0.0,0.0,0.0,0.0,0.0,0.0,0.0,0.0,0.0,0.0,0.0,0.0,0.0,0.0,0.0,0.0,0.0,0.0,0.0,0.0,0.0,0.0,0.0,0.0,0.0,0.0,0.0,0.0,0.0,0.0,0.0,0.0,0.0,0.0,0.0,0.0,0.0,0.0,0.0,0.0,0.0,0.0,0.0,0.0,0.0,0.0,0.0,0.0,0.0,0.0,0.0,0.0,0.0,0.0,0.0,0.0,0.0,0.0,0.0,0.0,0.0,0.0,0.0,0.0,0.0,0.0,0.0,0.0,0.0,0.0,0.0,0.0,0.0,0.0,0.0,0.0,0.0,0.0,0.0,0.0,0.0,0.0,0.0,0.0,0.0,0.0,0.0,0.0,0.0,0.0,0.0,0.0,0.0,0.0,0.0,0.0,0.0,0.0,0.0,0.0,0.0,0.0,0.0,0.0,0.0,0.0,0.0,0.0,0.0,0.0,0.0,0.0,0.0,0.0,0.0,0.0,0.0,0.0,0.0,0.0,0.0,0.0,0.0,0.0,0.0,0.0,0.0,0.0,0.0,0.0,0.0,0.0,0.0,0.0
-0.00686678790023945,-0.007079706875133302,-0.007283159340722325,-0.007467656180215702,-0.007631048803338573,-0.00778081309461408,-0.007927779806199178,-0.008081300244271283,-0.008238619596942446,-0.008399227013420189,-0.008561578491087404,-0.00872283653853273,-0.008879441147820242,-0.009020100482100663,-0.009147227981930458,-0.00926675274384452,-0.009386844189014275,-0.009514057159322577,-0.009641385270950601,-0.009771398361556423,-0.009901681740175111,-0.010028725058366904,-0.010148673170824912,-0.010248431880908532,-0.010334424854757399,-0.010412120033338143,-0.010488814186976595,-0.01057051281245776,-0.010648970138139502,-0.010731539738146768,-0.010817479748420893,-0.010905072363866024,-0.010992352454090608,-0.011066647896820377,-0.011138404741920571,-0.011212436993141122,-0.011293680047619076,-0.011384567810763269,-0.011471524996830344,-0.01156003691837761,-0.011644485832527586,-0.011718549249951247,-0.011776783167435929,-0.011803910205451714,-0.011812921237780214,-0.011810386516297434,-0.011804476854796983,-0.011802280384055782,-0.011795117327296198,-0.011796275564215718,-0.011804699459558672,-0.011816780279204792,-0.011827777600675634,-0.011820601103739978,-0.01180719169292041,-0.011789958174936454,-0.011772525055041314,-0.011758165509058803,-0.011735414282508115,-0.011718436009514941,-0.011706686762296546,0.0,0.0,0.0,0.0,0.0,0.0,0.0,0.0,0.0,0.0,0.0,0.0,0.0,0.0,0.0,0.0,0.0,0.0,0.0,0.0,0.0,0.0,0.0,0.0,0.0,0.0,0.0,0.0,0.0,0.0,0.0,0.0,0.0,0.0,0.0,0.0,0.0,0.0,0.0,0.0,0.0,0.0,0.0,0.0,0.0,0.0,0.0,0.0,0.0,0.0,0.0,0.0,0.0,0.0,0.0,0.0,0.0,0.0,0.0,0.0,0.0,0.0,0.0,0.0,0.0,0.0,0.0,0.0,0.0,0.0,0.0,0.0,0.0,0.0,0.0,0.0,0.0,0.0,0.0,0.0,0.0,0.0,0.0,0.0,0.0,0.0,0.0,0.0,0.0,0.0,0.0,0.0,0.0,0.0,0.0,0.0,0.0,0.0,0.0,0.0,0.0,0.0,0.0,0.0,0.0,0.0,0.0,0.0,0.0,0.0,0.0,0.0,0.0,0.0,0.0,0.0,0.0,0.0,0.0,0.0,0.0,0.0,0.0,0.0,0.0,0.0,0.0,0.0,0.0,0.0,0.0,0.0,0.0,0.0,0.0,0.0,0.0,0.0,0.0,0.0,0.0,0.0,0.0,0.0,0.0,0.0,0.0,0.0,0.0,0.0,0.0,0.0,0.0,0.0,0.0,0.0,0.0,0.0,0.0,0.0,0.0,0.0,0.0,0.0,0.0,0.0,0.0,0.0,0.0,0.0,0.0,0.0,0.0,0.0,0.0,0.0,0.0,0.0,0.0,0.0,0.0,0.0,0.0,0.0,0.0,0.0,0.0,0.0,0.0,0.0,0.0,0.0,0.0,0.0,0.0,0.0,0.0,0.0,0.0,0.0,0.0,0.0,0.0,0.0,0.0,0.0,0.0,0.0,0.0,0.0,0.0,0.0,0.0,0.0,0.0,0.0,0.0,0.0,0.0,0.0,0.0,0.0,0.0,0.0,0.0,0.0,0.0,0.0,0.0,0.0,0.0,0.0,0.0,0.0,0.0,0.0,0.0,0.0,0.0
-0.011816780279204792,-0.011827777600675634,-0.011820601103739978,-0.01180719169292041,-0.011789958174936454,-0.011772525055041314,-0.011758165509058803,-0.011735414282508115,-0.011718436009514941,-0.011706686762296546,-0.011697792972417222,-0.011688553417441972,-0.011662902687917318,-0.01163472951885346,-0.01160604406564416,-0.011579214568515619,-0.011555966790203655,-0.011523304714858986,-0.011495566746885042,-0.01147157928017794,-0.011448609183797866,-0.011423380162965338,-0.011379866857009197,-0.01133292329347228,-0.011284359557990939,-0.011236266095039795,-0.011190379474945765,-0.011134322802760084,-0.01108400600149217,-0.011039199470346052,-0.010997932286648306,-0.010957378786926195,-0.010901781208107343,-0.010845789109306342,-0.010789949965282857,-0.010734839815713808,-0.01068097283497505,-0.010615774494661327,-0.010555702700273898,-0.010501223735932045,-0.010451400438666594,-0.010404566883023908,-0.010346330063488372,-0.010291964439248102,-0.01024142458585721,-0.010193952915360823,-0.010148418530233181,-0.010091331205518469,-0.010037847566116285,-0.00998763086211844,-0.009939524263839077,-0.009892270177442455,-0.00983318645474181,-0.009778027847255177,-0.009727397772681213,-0.009680785669356765,-0.009636897349193659,-0.009582601482436535,-0.009531612704600373,-0.009482486844762425,-0.009433075023793024,0.0,0.0,0.0,0.0,0.0,0.0,0.0,0.0,0.0,0.0,0.0,0.0,0.0,0.0,0.0,0.0,0.0,0.0,0.0,0.0,0.0,0.0,0.0,0.0,0.0,0.0,0.0,0.0,0.0,0.0,0.0,0.0,0.0,0.0,0.0,0.0,0.0,0.0,0.0,0.0,0.0,0.0,0.0,0.0,0.0,0.0,0.0,0.0,0.0,0.0,0.0,0.0,0.0,0.0,0.0,0.0,0.0,0.0,0.0,0.0,0.0,0.0,0.0,0.0,0.0,0.0,0.0,0.0,0.0,0.0,0.0,0.0,0.0,0.0,0.0,0.0,0.0,0.0,0.0,0.0,0.0,0.0,0.0,0.0,0.0,0.0,0.0,0.0,0.0,0.0,0.0,0.0,0.0,0.0,0.0,0.0,0.0,0.0,0.0,0.0,0.0,0.0,0.0,0.0,0.0,0.0,0.0,0.0,0.0,0.0,0.0,0.0,0.0,0.0,0.0,0.0,0.0,0.0,0.0,0.0,0.0,0.0,0.0,0.0,0.0,0.0,0.0,0.0,0.0,0.0,0.0,0.0,0.0,0.0,0.0,0.0,0.0,0.0,0.0,0.0,0.0,0.0,0.0,0.0,0.0,0.0,0.0,0.0,0.0,0.0,0.0,0.0,0.0,0.0,0.0,0.0,0.0,0.0,0.0,0.0,0.0,0.0,0.0,0.0,0.0,0.0,0.0,0.0,0.0,0.0,0.0,0.0,0.0,0.0,0.0,0.0,0.0,0.0,0.0,0.0,0.0,0.0,0.0,0.0,0.0,0.0,0.0,0.0,0.0,0.0,0.0,0.0,0.0,0.0,0.0,0.0,0.0,0.0,0.0,0.0,0.0,0.0,0.0,0.0,0.0,0.0,0.0,0.0,0.0,0.0,0.0,0.0,0.0,0.0,0.0,0.0,0.0,0.0,0.0,0.0,0.0,0.0,0.0,0.0,0.0,0.0,0.0,0.0,0.0,0.0,0.0,0.0,0.0,0.0,0.0,0.0,0.0,0.0,0.0
-0.009892270177442455,-0.00983318645474181,-0.009778027847255177,-0.009727397772681213,-0.009680785669356765,-0.009636897349193659,-0.009582601482436535,-0.009531612704600373,-0.009482486844762425,-0.009433075023793024,-0.00938152452094486,-0.00931602160706738,-0.00925200485365243,-0.009190652300102357,-0.009132196898694149,-0.009076124730326946,-0.009010926026560295,-0.008949840372634795,-0.008891193059727125,-0.008832307997207661,-0.00877072493970903,-0.00869515313294507,-0.008619866305263364,-0.008545852550822734,-0.008473470506539797,-0.008402649111928787,-0.00832361056543716,-0.008249219486494937,-0.008178042989792503,-0.008107388896321803,-0.008034573284148545,-0.007949114917987552,-0.007863764801679924,-0.007778981605683862,-0.007694824020199734,-0.00761127492433932,-0.007520116294174092,-0.007433699596184778,-0.007351084315381389,-0.007269991233401895,-0.007187976564530095,-0.0070957015609054595,-0.007004489081159958,-0.006914173632247665,-0.006824205234464311,-0.006734176908261558,-0.006636938117646954,-0.006543992861076492,-0.006454770836469544,-0.006367526566576229,-0.0062803772519930195,-0.006185501589042686,-0.006093261114355308,-0.006003138821423845,-0.005914022795346817,-0.0058249043218235215,-0.00572946545201102,-0.0056375562902891896,-0.005548175950581889,-0.005459391951199623,-0.005369431391654024,0.0,0.0,0.0,0.0,0.0,0.0,0.0,0.0,0.0,0.0,0.0,0.0,0.0,0.0,0.0,0.0,0.0,0.0,0.0,0.0,0.0,0.0,0.0,0.0,0.0,0.0,0.0,0.0,0.0,0.0,0.0,0.0,0.0,0.0,0.0,0.0,0.0,0.0,0.0,0.0,0.0,0.0,0.0,0.0,0.0,0.0,0.0,0.0,0.0,0.0,0.0,0.0,0.0,0.0,0.0,0.0,0.0,0.0,0.0,0.0,0.0,0.0,0.0,0.0,0.0,0.0,0.0,0.0,0.0,0.0,0.0,0.0,0.0,0.0,0.0,0.0,0.0,0.0,0.0,0.0,0.0,0.0,0.0,0.0,0.0,0.0,0.0,0.0,0.0,0.0,0.0,0.0,0.0,0.0,0.0,0.0,0.0,0.0,0.0,0.0,0.0,0.0,0.0,0.0,0.0,0.0,0.0,0.0,0.0,0.0,0.0,0.0,0.0,0.0,0.0,0.0,0.0,0.0,0.0,0.0,0.0,0.0,0.0,0.0,0.0,0.0,0.0,0.0,0.0,0.0,0.0,0.0,0.0,0.0,0.0,0.0,0.0,0.0,0.0,0.0,0.0,0.0,0.0,0.0,0.0,0.0,0.0,0.0,0.0,0.0,0.0,0.0,0.0,0.0,0.0,0.0,0.0,0.0,0.0,0.0,0.0,0.0,0.0,0.0,0.0,0.0,0.0,0.0,0.0,0.0,0.0,0.0,0.0,0.0,0.0,0.0,0.0,0.0,0.0,0.0,0.0,0.0,0.0,0.0,0.0,0.0,0.0,0.0,0.0,0.0,0.0,0.0,0.0,0.0,0.0,0.0,0.0,0.0,0.0,0.0,0.0,0.0,0.0,0.0,0.0,0.0,0.0,0.0,0.0,0.0,0.0,0.0,0.0,0.0,0.0,0.0,0.0,0.0,0.0,0.0,0.0,0.0,0.0,0.0,0.0,0.0,0.0,0.0,0.0,0.0,0.0,0.0,0.0,0.0,0.0,0.0,0.0,0.0,0.0
-0.006185501589042686,-0.006093261114355308,-0.006003138821423845,-0.005914022795346817,-0.0058249043218235215,-0.00572946545201102,-0.0056375562902891896,-0.005548175950581889,-0.005459391951199623,-0.005369431391654024,-0.0052724152961252,-0.005177663907103668,-0.005084724640734562,-0.004992478650223252,-0.004899920004334754,-0.004801942616227462,-0.004707368433557034,-0.00461519118741072,-0.004523478450162359,-0.004430408617015483,-0.0043306506030794355,-0.004232443546070143,-0.0041350815965761,-0.004037352812224585,-0.003938399775512646,-0.0038344896428133303,-0.003733979876368904,-0.003636553029204639,-0.00354105471907444,-0.0034463909340098084,-0.0033489740727325615,-0.0032558459425546067,-0.0031658647460007247,-0.0030770631318109967,-0.002987642581657749,-0.0028941628312054205,-0.0028027125964761417,-0.0027122178672665683,-0.0026212287111614255,-0.002528894229305689,-0.002433674955640545,-0.0023422367537412293,-0.002254486959876687,-0.002169398946786333,-0.002085676789340943,-0.002000935828005124,-0.0019184237602665613,-0.0018344451575983947,-0.0017440500856546767,-0.0016424593493761977,-0.001525802365310432,-0.0013965201570350736,-0.0012535314885306506,-0.0010974228314510324,-0.0009314650783761784,-0.0007620382715913676,-0.0006003501448035859,-0.0004530845801652735,-0.0003253318097977764,-0.00022047080737615905,-0.00014087992509362253,0.0,0.0,0.0,0.0,0.0,0.0,0.0,0.0,0.0,0.0,0.0,0.0,0.0,0.0,0.0,0.0,0.0,0.0,0.0,0.0,0.0,0.0,0.0,0.0,0.0,0.0,0.0,0.0,0.0,0.0,0.0,0.0,0.0,0.0,0.0,0.0,0.0,0.0,0.0,0.0,0.0,0.0,0.0,0.0,0.0,0.0,0.0,0.0,0.0,0.0,0.0,0.0,0.0,0.0,0.0,0.0,0.0,0.0,0.0,0.0,0.0,0.0,0.0,0.0,0.0,0.0,0.0,0.0,0.0,0.0,0.0,0.0,0.0,0.0,0.0,0.0,0.0,0.0,0.0,0.0,0.0,0.0,0.0,0.0,0.0,0.0,0.0,0.0,0.0,0.0,0.0,0.0,0.0,0.0,0.0,0.0,0.0,0.0,0.0,0.0,0.0,0.0,0.0,0.0,0.0,0.0,0.0,0.0,0.0,0.0,0.0,0.0,0.0,0.0,0.0,0.0,0.0,0.0,0.0,0.0,0.0,0.0,0.0,0.0,0.0,0.0,0.0,0.0,0.0,0.0,0.0,0.0,0.0,0.0,0.0,0.0,0.0,0.0,0.0,0.0,0.0,0.0,0.0,0.0,0.0,0.0,0.0,0.0,0.0,0.0,0.0,0.0,0.0,0.0,0.0,0.0,0.0,0.0,0.0,0.0,0.0,0.0,0.0,0.0,0.0,0.0,0.0,0.0,0.0,0.0,0.0,0.0,0.0,0.0,0.0,0.0,0.0,0.0,0.0,0.0,0.0,0.0,0.0,0.0,0.0,0.0,0.0,0.0,0.0,0.0,0.0,0.0,0.0,0.0,0.0,0.0,0.0,0.0,0.0,0.0,0.0,0.0,0.0,0.0,0.0,0.0,0.0,0.0,0.0,0.0,0.0,0.0,0.0,0.0,0.0,0.0,0.0,0.0,0.0,0.0,0.0,0.0,0.0,0.0,0.0,0.0,0.0,0.0,0.0,0.0,0.0,0.0,0.0,0.0,0.0,0.0,0.0,0.0,0.0
-0.0013965201570350736,-0.0012535314885306506,-0.0010974228314510324,-0.0009314650783761784,-0.0007620382715913676,-0.0006003501448035859,-0.0004530845801652735,-0.0003253318097977764,-0.00022047080737615905,-0.00014087992509362253,-8.791769928085737e-05,-5.6057810568439526e-05,-3.7061286538405324e-05,-2.201150268312968e-05,-4.605336604838923e-06,1.9452845511245608e-05,5.571183328327725e-05,0.00010778152784842167,0.00017644780200989972,0.00025744760886843175,0.00034589947182392275,0.0004391552771487552,0.0005353667433301053,0.0006330632476205644,0.0007281889546318569,0.0008195429588478898,0.0009086947143495418,0.0009980748926968696,0.0010896786932312293,0.001181044323991273,0.0012723140189117204,0.0013644835767179578,0.0014585735634123633,0.001554921111192881,0.0016492200450336466,0.0017415412604008791,0.0018329963883500998,0.0019253739306996432,0.002020163529154533,0.002113743344056948,0.0022076079995681937,0.0023030278655911452,0.002401156121057479,0.002502210565813566,0.002600532489313974,0.0026969219013768947,0.0027920262406291216,0.002887307294838713,0.002984257602472599,0.0030786707374514575,0.003174025606016456,0.0032724350591669896,0.0033755586005902,0.0034835333486931295,0.003588789204120087,0.0036922080251354044,0.003792610867237431,0.0038895054801101527,0.00398280909491366,0.004066281321321414,0.004145395706609235,0.0,0.0,0.0,0.0,0.0,0.0,0.0,0.0,0.0,0.0,0.0,0.0,0.0,0.0,0.0,0.0,0.0,0.0,0.0,0.0,0.0,0.0,0.0,0.0,0.0,0.0,0.0,0.0,0.0,0.0,0.0,0.0,0.0,0.0,0.0,0.0,0.0,0.0,0.0,0.0,0.0,0.0,0.0,0.0,0.0,0.0,0.0,0.0,0.0,0.0,0.0,0.0,0.0,0.0,0.0,0.0,0.0,0.0,0.0,0.0,0.0,0.0,0.0,0.0,0.0,0.0,0.0,0.0,0.0,0.0,0.0,0.0,0.0,0.0,0.0,0.0,0.0,0.0,0.0,0.0,0.0,0.0,0.0,0.0,0.0,0.0,0.0,0.0,0.0,0.0,0.0,0.0,0.0,0.0,0.0,0.0,0.0,0.0,0.0,0.0,0.0,0.0,0.0,0.0,0.0,0.0,0.0,0.0,0.0,0.0,0.0,0.0,0.0,0.0,0.0,0.0,0.0,0.0,0.0,0.0,0.0,0.0,0.0,0.0,0.0,0.0,0.0,0.0,0.0,0.0,0.0,0.0,0.0,0.0,0.0,0.0,0.0,0.0,0.0,0.0,0.0,0.0,0.0,0.0,0.0,0.0,0.0,0.0,0.0,0.0,0.0,0.0,0.0,0.0,0.0,0.0,0.0,0.0,0.0,0.0,0.0,0.0,0.0,0.0,0.0,0.0,0.0,0.0,0.0,0.0,0.0,0.0,0.0,0.0,0.0,0.0,0.0,0.0,0.0,0.0,0.0,0.0,0.0,0.0,0.0,0.0,0.0,0.0,0.0,0.0,0.0,0.0,0.0,0.0,0.0,0.0,0.0,0.0,0.0,0.0,0.0,0.0,0.0,0.0,0.0,0.0,0.0,0.0,0.0,0.0,0.0,0.0,0.0,0.0,0.0,0.0,0.0,0.0,0.0,0.0,0.0,0.0,0.0,0.0,0.0,0.0,0.0,0.0,0.0,0.0,0.0,0.0,0.0,0.0,0.0,0.0,0.0,0.0,0.0
0.0032724350591669896,0.0033755586005902,0.0034835333486931295,0.003588789204120087,0.0036922080251354044,0.003792610867237431,0.0038895054801101527,0.00398280909491366,0.004066281321321414,0.004145395706609235,0.004223407079326538,0.004303640281635432,0.004388094311524145,0.004469884072838781,0.004552264270939083,0.004634400373625988,0.004715221510140107,0.00479337952813463,0.004860385047046361,0.004921123539039112,0.004978182838160591,0.005034974066363189,0.005094319075730418,0.005149850969628096,0.005207434586676636,0.005267756340212088,0.005330729626674318,0.0053952586233262075,0.0054513707295322225,0.005504144028834874,0.00555483264979294,0.005605494870801795,0.005657965993945536,0.005704565233220376,0.005752790505877433,0.005804320719976677,0.005860276383060125,0.005920673364564865,0.005975322853854249,0.006030696308944607,0.0060875715288797065,0.006146905353531634,0.006209096199579009,0.006264083553949925,0.0063195006947565765,0.006376391529419651,0.006435664678628372,0.006497519034593152,0.006551270555835039,0.006605241434620933,0.006660741087661555,0.006718999952537276,0.006780455750288088,0.006833959511674093,0.006888268208604182,0.006944264393999961,0.00700264009623319,0.007063392465983024,0.007114703000401065,0.007166147150887183,0.007219038593760771,0.0,0.0,0.0,0.0,0.0,0.0,0.0,0.0,0.0,0.0,0.0,0.0,0.0,0.0,0.0,0.0,0.0,0.0,0.0,0.0,0.0,0.0,0.0,0.0,0.0,0.0,0.0,0.0,0.0,0.0,0.0,0.0,0.0,0.0,0.0,0.0,0.0,0.0,0.0,0.0,0.0,0.0,0.0,0.0,0.0,0.0,0.0,0.0,0.0,0.0,0.0,0.0,0.0,0.0,0.0,0.0,0.0,0.0,0.0,0.0,0.0,0.0,0.0,0.0,0.0,0.0,0.0,0.0,0.0,0.0,0.0,0.0,0.0,0.0,0.0,0.0,0.0,0.0,0.0,0.0,0.0,0.0,0.0,0.0,0.0,0.0,0.0,0.0,0.0,0.0,0.0,0.0,0.0,0.0,0.0,0.0,0.0,0.0,0.0,0.0,0.0,0.0,0.0,0.0,0.0,0.0,0.0,0.0,0.0,0.0,0.0,0.0,0.0,0.0,0.0,0.0,0.0,0.0,0.0,0.0,0.0,0.0,0.0,0.0,0.0,0.0,0.0,0.0,0.0,0.0,0.0,0.0,0.0,0.0,0.0,0.0,0.0,0.0,0.0,0.0,0.0,0.0,0.0,0.0,0.0,0.0,0.0,0.0,0.0,0.0,0.0,0.0,0.0,0.0,0.0,0.0,0.0,0.0,0.0,0.0,0.0,0.0,0.0,0.0,0.0,0.0,0.0,0.0,0.0,0.0,0.0,0.0,0.0,0.0,0.0,0.0,0.0,0.0,0.0,0.0,0.0,0.0,0.0,0.0,0.0,0.0,0.0,0.0,0.0,0.0,0.0,0.0,0.0,0.0,0.0,0.0,0.0,0.0,0.0,0.0,0.0,0.0,0.0,0.0,0.0,0.0,0.0,0.0,0.0,0.0,0.0,0.0,0.0,0.0,0.0,0.0,0.0,0.0,0.0,0.0,0.0,0.0,0.0,0.0,0.0,0.0,0.0,0.0,0.0,0.0,0.0,0.0,0.0,0.0,0.0,0.0,0.0,0.0,0.0
0.006718999952537276,0.006780455750288088,0.006833959511674093,0.006888268208604182,0.006944264393999961,0.00700264009623319,0.007063392465983024,0.007114703000401065,0.007166147150887183,0.007219038593760771,0.0072745691086422894,0.007333157731736899,0.007382775720275251,0.007433575396327021,0.007486714259768214,0.007543109053386482,0.007602922997490774,0.00765354819733712,0.007705712661587827,0.007760675331882241,0.007819371708837062,0.007881803408651541,0.007934630169867203,0.007988446229634459,0.008043898538938596,0.008101395276242646,0.008160683819812307,0.008208223926760974,0.008255609892385803,0.00830437748240654,0.008355889273605492,0.008410680813849093,0.008455175953458356,0.008501490779681766,0.008550843228793039,0.008603976539817192,0.008660677807885877,0.008706212715931791,0.008752757782227704,0.00880146961531535,0.008853313843381188,0.00890848678700509,0.008952607071464572,0.008998437394430174,0.009047237238581822,0.009099861596492126,0.009156295766124301,0.009201868392015958,0.009249471799202531,0.009300274669465486,0.00935502182476035,0.009413523943194998,0.009460438167973376,0.009508843141949198,0.009559707834742493,0.009613699146733691,0.009670752120265693,0.009715455634665504,0.009761881294249639,0.009811576907287158,0.00986558966474439,0.0,0.0,0.0,0.0,0.0,0.0,0.0,0.0,0.0,0.0,0.0,0.0,0.0,0.0,0.0,0.0,0.0,0.0,0.0,0.0,0.0,0.0,0.0,0.0,0.0,0.0,0.0,0.0,0.0,0.0,0.0,0.0,0.0,0.0,0.0,0.0,0.0,0.0,0.0,0.0,0.0,0.0,0.0,0.0,0.0,0.0,0.0,0.0,0.0,0.0,0.0,0.0,0.0,0.0,0.0,0.0,0.0,0.0,0.0,0.0,0.0,0.0,0.0,0.0,0.0,0.0,0.0,0.0,0.0,0.0,0.0,0.0,0.0,0.0,0.0,0.0,0.0,0.0,0.0,0.0,0.0,0.0,0.0,0.0,0.0,0.0,0.0,0.0,0.0,0.0,0.0,0.0,0.0,0.0,0.0,0.0,0.0,0.0,0.0,0.0,0.0,0.0,0.0,0.0,0.0,0.0,0.0,0.0,0.0,0.0,0.0,0.0,0.0,0.0,0.0,0.0,0.0,0.0,0.0,0.0,0.0,0.0,0.0,0.0,0.0,0.0,0.0,0.0,0.0,0.0,0.0,0.0,0.0,0.0,0.0,0.0,0.0,0.0,0.0,0.0,0.0,0.0,0.0,0.0,0.0,0.0,0.0,0.0,0.0,0.0,0.0,0.0,0.0,0.0,0.0,0.0,0.0,0.0,0.0,0.0,0.0,0.0,0.0,0.0,0.0,0.0,0.0,0.0,0.0,0.0,0.0,0.0,0.0,0.0,0.0,0.0,0.0,0.0,0.0,0.0,0.0,0.0,0.0,0.0,0.0,0.0,0.0,0.0,0.0,0.0,0.0,0.0,0.0,0.0,0.0,0.0,0.0,0.0,0.0,0.0,0.0,0.0,0.0,0.0,0.0,0.0,0.0,0.0,0.0,0.0,0.0,0.0,0.0,0.0,0.0,0.0,0.0,0.0,0.0,0.0,0.0,0.0,0.0,0.0,0.0,0.0,0.0,0.0,0.0,0.0,0.0,0.0,0.0,0.0,0.0,0.0,0.0,0.0,0.0
0.009413523943194998,0.009460438167973376,0.009508843141949198,0.009559707834742493,0.009613699146733691,0.009670752120265693,0.009715455634665504,0.009761881294249639,0.009811576907287158,0.00986558966474439,0.009923872921346125,0.00997022191848078,0.010018372072991144,0.010068935911603235,0.010122044692945394,0.010176993722426555,0.010216968735627397,0.010256414952583613,0.010296686938073972,0.010338935980281266,0.010383614738921246,0.010414736378883436,0.010448432854199772,0.010487385331901192,0.010534085980451162,0.010590235755415936,0.010640374433632305,0.010701259469506622,0.010774609552130821,0.010860379832722339,0.01095603478943041,0.011040050871866018,0.011123171176749814,0.011200978185474199,0.011268741727939364,0.011321833823444883,0.011339667265897834,0.011338416974301607,0.011321985008273167,0.01129614922897786,0.011267423844886377,0.011224906731252883,0.01119240985416342,0.011177140037904945,0.011183659879589818,0.011213013866327866,0.011245254555845022,0.011294170955059605,0.011356667798631478,0.011428729026666145,0.01150578451495354,0.011565597444999898,0.011623655434750508,0.011680903537484232,0.011738832020263806,0.011798555163579213,0.011842335734459914,0.011889013550905983,0.011940595045272537,0.011997869593135042,0.012060093731582861,0.0,0.0,0.0,0.0,0.0,0.0,0.0,0.0,0.0,0.0,0.0,0.0,0.0,0.0,0.0,0.0,0.0,0.0,0.0,0.0,0.0,0.0,0.0,0.0,0.0,0.0,0.0,0.0,0.0,0.0,0.0,0.0,0.0,0.0,0.0,0.0,0.0,0.0,0.0,0.0,0.0,0.0,0.0,0.0,0.0,0.0,0.0,0.0,0.0,0.0,0.0,0.0,0.0,0.0,0.0,0.0,0.0,0.0,0.0,0.0,0.0,0.0,0.0,0.0,0.0,0.0,0.0,0.0,0.0,0.0,0.0,0.0,0.0,0.0,0.0,0.0,0.0,0.0,0.0,0.0,0.0,0.0,0.0,0.0,0.0,0.0,0.0,0.0,0.0,0.0,0.0,0.0,0.0,0.0,0.0,0.0,0.0,0.0,0.0,0.0,0.0,0.0,0.0,0.0,0.0,0.0,0.0,0.0,0.0,0.0,0.0,0.0,0.0,0.0,0.0,0.0,0.0,0.0,0.0,0.0,0.0,0.0,0.0,0.0,0.0,0.0,0.0,0.0,0.0,0.0,0.0,0.0,0.0,0.0,0.0,0.0,0.0,0.0,0.0,0.0,0.0,0.0,0.0,0.0,0.0,0.0,0.0,0.0,0.0,0.0,0.0,0.0,0.0,0.0,0.0,0.0,0.0,0.0,0.0,0.0,0.0,0.0,0.0,0.0,0.0,0.0,0.0,0.0,0.0,0.0,0.0,0.0,0.0,0.0,0.0,0.0,0.0,0.0,0.0,0.0,0.0,0.0,0.0,0.0,0.0,0.0,0.0,0.0,0.0,0.0,0.0,0.0,0.0,0.0,0.0,0.0,0.0,0.0,0.0,0.0,0.0,0.0,0.0,0.0,0.0,0.0,0.0,0.0,0.0,0.0,0.0,0.0,0.0,0.0,0.0,0.0,0.0,0.0,0.0,0.0,0.0,0.0,0.0,0.0,0.0,0.0,0.0,0.0,0.0,0.0,0.0,0.0,0.0,0.0,0.0,0.0,0.0,0.0,0.0
0.011565597444999898,0.011623655434750508,0.011680903537484232,0.011738832020263806,0.011798555163579213,0.011842335734459914,0.011889013550905983,0.011940595045272537,0.011997869593135042,0.012060093731582861,0.012107052245255196,0.012155977323690828,0.012207751745115299,0.012262996002865607,0.012321632299586511,0.012364363580519844,0.01240991720467699,0.012459966240157824,0.012515274449326,0.012575270919916205,0.012619528935257356,0.012666132095843071,0.012716168062449481,0.012770400867303647,0.0128289095402459,0.012872155754853665,0.01291971991593736,0.01297350998079934,0.013034284162056962,0.013101106340132214,0.013152223796702344,0.013205350708316832,0.01326028840281095,0.013316547521021682,0.013373303140018528,0.013410063437422433,0.013447704774945946,0.013489110968274865,0.013536303913037988,0.01358961011762856,0.013627798735054047,0.013669466197440234,0.013714136969178307,0.013760363928554587,0.013805917095238592,0.013828618111664259,0.013848309469181353,0.013867544044229407,0.013888903871624158,0.013914093894859104,0.013923462419048368,0.013938192529846787,0.013959835546396513,0.013988396634647932,0.014022270694479616,0.014038460811149395,0.01405647599956524,0.014077263135995235,0.014101596494563082,0.014129604253783951,0.014140112327722809,0.0,0.0,0.0,0.0,0.0,0.0,0.0,0.0,0.0,0.0,0.0,0.0,0.0,0.0,0.0,0.0,0.0,0.0,0.0,0.0,0.0,0.0,0.0,0.0,0.0,0.0,0.0,0.0,0.0,0.0,0.0,0.0,0.0,0.0,0.0,0.0,0.0,0.0,0.0,0.0,0.0,0.0,0.0,0.0,0.0,0.0,0.0,0.0,0.0,0.0,0.0,0.0,0.0,0.0,0.0,0.0,0.0,0.0,0.0,0.0,0.0,0.0,0.0,0.0,0.0,0.0,0.0,0.0,0.0,0.0,0.0,0.0,0.0,0.0,0.0,0.0,0.0,0.0,0.0,0.0,0.0,0.0,0.0,0.0,0.0,0.0,0.0,0.0,0.0,0.0,0.0,0.0,0.0,0.0,0.0,0.0,0.0,0.0,0.0,0.0,0.0,0.0,0.0,0.0,0.0,0.0,0.0,0.0,0.0,0.0,0.0,0.0,0.0,0.0,0.0,0.0,0.0,0.0,0.0,0.0,0.0,0.0,0.0,0.0,0.0,0.0,0.0,0.0,0.0,0.0,0.0,0.0,0.0,0.0,0.0,0.0,0.0,0.0,0.0,0.0,0.0,0.0,0.0,0.0,0.0,0.0,0.0,0.0,0.0,0.0,0.0,0.0,0.0,0.0,0.0,0.0,0.0,0.0,0.0,0.0,0.0,0.0,0.0,0.0,0.0,0.0,0.0,0.0,0.0,0.0,0.0,0.0,0.0,0.0,0.0,0.0,0.0,0.0,0.0,0.0,0.0,0.0,0.0,0.0,0.0,0.0,0.0,0.0,0.0,0.0,0.0,0.0,0.0,0.0,0.0,0.0,0.0,0.0,0.0,0.0,0.0,0.0,0.0,0.0,0.0,0.0,0.0,0.0,0.0,0.0,0.0,0.0,0.0,0.0,0.0,0.0,0.0,0.0,0.0,0.0,0.0,0.0,0.0,0.0,0.0,0.0,0.0,0.0,0.0,0.0,0.0,0.0,0.0,0.0,0.0,0.0,0.0,0.0,0.0
0.013938192529846787,0.013959835546396513,0.013988396634647932,0.014022270694479616,0.014038460811149395,0.01405647599956524,0.014077263135995235,0.014101596494563082,0.014129604253783951,0.014140112327722809,0.014154739001144046,0.014175444586862252,0.014203058661288584,0.014236937813088286,0.014254395702138455,0.014276032913489048,0.01430270985035608,0.014334596834199112,0.014370899109983386,0.014388990580531951,0.014410348622798016,0.014436482104326333,0.014468121705769752,0.014504860406878487,0.014524027547551147,0.01454738580985917,0.014576218441066774,0.014610858055653876,0.014650411539857444,0.014671500592742975,0.014695866117142626,0.014724630719263984,0.014758192422921132,0.014795962672836404,0.014814813212675835,0.014837359868970269,0.01486515690587151,0.014898768436032219,0.014937455514902522,0.014957431902363252,0.01498102257851905,0.015009208895521986,0.015042139125581964,0.015078948356968637,0.015095830146889262,0.015115891317840567,0.01514073402899703,0.015171051066782005,0.015206293933771577,0.015222546111971413,0.015242772165216687,0.01526809447399261,0.015298690450111084,0.015333639510574516,0.015348806537769391,0.015367499937919292,0.015391254584565502,0.015420699512070316,0.015455221468068527,0.015470460316786052,0.015489697720051794,0.0,0.0,0.0,0.0,0.0,0.0,0.0,0.0,0.0,0.0,0.0,0.0,0.0,0.0,0.0,0.0,0.0,0.0,0.0,0.0,0.0,0.0,0.0,0.0,0.0,0.0,0.0,0.0,0.0,0.0,0.0,0.0,0.0,0.0,0.0,0.0,0.0,0.0,0.0,0.0,0.0,0.0,0.0,0.0,0.0,0.0,0.0,0.0,0.0,0.0,0.0,0.0,0.0,0.0,0.0,0.0,0.0,0.0,0.0,0.0,0.0,0.0,0.0,0.0,0.0,0.0,0.0,0.0,0.0,0.0,0.0,0.0,0.0,0.0,0.0,0.0,0.0,0.0,0.0,0.0,0.0,0.0,0.0,0.0,0.0,0.0,0.0,0.0,0.0,0.0,0.0,0.0,0.0,0.0,0.0,0.0,0.0,0.0,0.0,0.0,0.0,0.0,0.0,0.0,0.0,0.0,0.0,0.0,0.0,0.0,0.0,0.0,0.0,0.0,0.0,0.0,0.0,0.0,0.0,0.0,0.0,0.0,0.0,0.0,0.0,0.0,0.0,0.0,0.0,0.0,0.0,0.0,0.0,0.0,0.0,0.0,0.0,0.0,0.0,0.0,0.0,0.0,0.0,0.0,0.0,0.0,0.0,0.0,0.0,0.0,0.0,0.0,0.0,0.0,0.0,0.0,0.0,0.0,0.0,0.0,0.0,0.0,0.0,0.0,0.0,0.0,0.0,0.0,0.0,0.0,0.0,0.0,0.0,0.0,0.0,0.0,0.0,0.0,0.0,0.0,0.0,0.0,0.0,0.0,0.0,0.0,0.0,0.0,0.0,0.0,0.0,0.0,0.0,0.0,0.0,0.0,0.0,0.0,0.0,0.0,0.0,0.0,0.0,0.0,0.0,0.0,0.0,0.0,0.0,0.0,0.0,0.0,0.0,0.0,0.0,0.0,0.0,0.0,0.0,0.0,0.0,0.0,0.0,0.0,0.0,0.0,0.0,0.0,0.0,0.0,0.0,0.0,0.0,0.0,0.0,0.0,0.0,0.0,0.0
0.01526809447399261,0.015298690450111084,0.015333639510574516,0.015348806537769391,0.015367499937919292,0.015391254584565502,0.015420699512070316,0.015455221468068527,0.015470460316786052,0.015489697720051794,0.015513993400258594,0.015543400213117354,0.015576803425562537,0.015589326412770927,0.015604588826752268,0.015624129653095604,0.01564871796870156,0.015678008542052112,0.01568779187042615,0.015702008802116148,0.015722030183509733,0.015748106541748796,0.015779213658541687,0.01579057036355732,0.015805743634916693,0.015825926798336432,0.015851447460172686,0.015881549460665542,0.01589155424995368,0.015905704012290377,0.015925584523883853,0.015951830800643402,0.015983885262789394,0.015996876916719523,0.01601526428578955,0.01604043049457531,0.016072590788576493,0.016110541719168425,0.01612833445504091,0.016149799040398562,0.0161755257494318,0.016205145321132815,0.01623719817554746,0.01624563019344926,0.016255108204992465,0.016267199435418333,0.01628278841882626,0.01630184178821816,0.01629957685147778,0.016302407928712192,0.01631333659035731,0.016334444926970948,0.016366485400888857,0.01638460987910184,0.016414818599716784,0.01645847940725482,0.01651494298692854,0.016581203015055036,0.01662766405579049,0.016675789904314797,0.016722578919178593,0.0,0.0,0.0,0.0,0.0,0.0,0.0,0.0,0.0,0.0,0.0,0.0,0.0,0.0,0.0,0.0,0.0,0.0,0.0,0.0,0.0,0.0,0.0,0.0,0.0,0.0,0.0,0.0,0.0,0.0,0.0,0.0,0.0,0.0,0.0,0.0,0.0,0.0,0.0,0.0,0.0,0.0,0.0,0.0,0.0,0.0,0.0,0.0,0.0,0.0,0.0,0.0,0.0,0.0,0.0,0.0,0.0,0.0,0.0,0.0,0.0,0.0,0.0,0.0,0.0,0.0,0.0,0.0,0.0,0.0,0.0,0.0,0.0,0.0,0.0,0.0,0.0,0.0,0.0,0.0,0.0,0.0,0.0,0.0,0.0,0.0,0.0,0.0,0.0,0.0,0.0,0.0,0.0,0.0,0.0,0.0,0.0,0.0,0.0,0.0,0.0,0.0,0.0,0.0,0.0,0.0,0.0,0.0,0.0,0.0,0.0,0.0,0.0,0.0,0.0,0.0,0.0,0.0,0.0,0.0,0.0,0.0,0.0,0.0,0.0,0.0,0.0,0.0,0.0,0.0,0.0,0.0,0.0,0.0,0.0,0.0,0.0,0.0,0.0,0.0,0.0,0.0,0.0,0.0,0.0,0.0,0.0,0.0,0.0,0.0,0.0,0.0,0.0,0.0,0.0,0.0,0.0,0.0,0.0,0.0,0.0,0.0,0.0,0.0,0.0,0.0,0.0,0.0,0.0,0.0,0.0,0.0,0.0,0.0,0.0,0.0,0.0,0.0,0.0,0.0,0.0,0.0,0.0,0.0,0.0,0.0,0.0,0.0,0.0,0.0,0.0,0.0,0.0,0.0,0.0,0.0,0.0,0.0,0.0,0.0,0.0,0.0,0.0,0.0,0.0,0.0,0.0,0.0,0.0,0.0,0.0,0.0,0.0,0.0,0.0,0.0,0.0,0.0,0.0,0.0,0.0,0.0,0.0,0.0,0.0,0.0,0.0,0.0,0.0,0.0,0.0,0.0,0.0,0.0,0.0,0.0,0.0,0.0,0.0
0.016334444926970948,0.016366485400888857,0.01638460987910184,0.016414818599716784,0.01645847940725482,0.01651494298692854,0.016581203015055036,0.01662766405579049,0.016675789904314797,0.016722578919178593,0.01676411233411873,0.016795920629221216,0.016789079052087187,0.016768859095413445,0.01673840547077918,0.0167019245914788,0.016664056941321302,0.01660448295430373,0.016555735715789832,0.016525061224358713,0.016516927774884175,0.01653219325342139,0.01654306557649236,0.016572714014250495,0.0166182577133699,0.016675231293116207,0.016738267521290266,0.016776851228019213,0.016815424389799365,0.016855296501016366,0.01689797642685112,0.016944341789159146,0.01696889109068327,0.01699928966581638,0.01703756570810726,0.017083891394971726,0.017136541131991118,0.01716700669586293,0.017200842640681387,0.01723897592726028,0.01728177396147591,0.01732874047482309,0.017352976351856862,0.01738182560804032,0.01741723734288478,0.01745974035194973,0.017508197104304315,0.01755100758430845,0.01759841469503418,0.01764171723042072,0.017672457440184704,0.01768765373378554,0.01768448092868396,0.01769174865977158,0.01772266797971452,0.017784167031152508,0.01787253194907954,0.01796360337903306,0.018049067903146775,0.01810194683445452,0.018104137171995105,0.0,0.0,0.0,0.0,0.0,0.0,0.0,0.0,0.0,0.0,0.0,0.0,0.0,0.0,0.0,0.0,0.0,0.0,0.0,0.0,0.0,0.0,0.0,0.0,0.0,0.0,0.0,0.0,0.0,0.0,0.0,0.0,0.0,0.0,0.0,0.0,0.0,0.0,0.0,0.0,0.0,0.0,0.0,0.0,0.0,0.0,0.0,0.0,0.0,0.0,0.0,0.0,0.0,0.0,0.0,0.0,0.0,0.0,0.0,0.0,0.0,0.0,0.0,0.0,0.0,0.0,0.0,0.0,0.0,0.0,0.0,0.0,0.0,0.0,0.0,0.0,0.0,0.0,0.0,0.0,0.0,0.0,0.0,0.0,0.0,0.0,0.0,0.0,0.0,0.0,0.0,0.0,0.0,0.0,0.0,0.0,0.0,0.0,0.0,0.0,0.0,0.0,0.0,0.0,0.0,0.0,0.0,0.0,0.0,0.0,0.0,0.0,0.0,0.0,0.0,0.0,0.0,0.0,0.0,0.0,0.0,0.0,0.0,0.0,0.0,0.0,0.0,0.0,0.0,0.0,0.0,0.0,0.0,0.0,0.0,0.0,0.0,0.0,0.0,0.0,0.0,0.0,0.0,0.0,0.0,0.0,0.0,0.0,0.0,0.0,0.0,0.0,0.0,0.0,0.0,0.0,0.0,0.0,0.0,0.0,0.0,0.0,0.0,0.0,0.0,0.0,0.0,0.0,0.0,0.0,0.0,0.0,0.0,0.0,0.0,0.0,0.0,0.0,0.0,0.0,0.0,0.0,0.0,0.0,0.0,0.0,0.0,0.0,0.0,0.0,0.0,0.0,0.0,0.0,0.0,0.0,0.0,0.0,0.0,0.0,0.0,0.0,0.0,0.0,0.0,0.0,0.0,0.0,0.0,0.0,0.0,0.0,0.0,0.0,0.0,0.0,0.0,0.0,0.0,0.0,0.0,0.0,0.0,0.0,0.0,0.0,0.0,0.0,0.0,0.0,0.0,0.0,0.0,0.0,0.0,0.0,0.0,0.0,0.0
0.01768765373378554,0.01768448092868396,0.01769174865977158,0.01772266797971452,0.017784167031152508,0.01787253194907954,0.01796360337903306,0.018049067903146775,0.01810194683445452,0.018104137171995105,0.01805741016437354,0.017978329444827273,0.017924631991840013,0.017936081718953216,0.018032471205953395,0.018201546151566744,0.018389345877958863,0.018545886155426045,0.018606170166072664,0.01853441131379457,0.01834568213875995,0.01810034363679976,0.01791659670655686,0.017889615395796768,0.018065573054051924,0.01841391573468479,0.018817604875318892,0.01913687710061959,0.019221718120640753,0.018991413607892728,0.018482149330609637,0.01784657394247266,0.0173464667049187,0.017227029309137217,0.017635703671997467,0.018543592344715486,0.01970637883000474,0.020733690931285194,0.021142603695416075,0.020509744614672327,0.018605035358821333,0.015470007397647284,0.011462404129987402,0.007138216924657298,0.003132283862223912,0.0,0.0,0.0,0.0,0.0,0.0,0.0,0.0,0.0,0.0,0.0,0.0,0.0,0.0,0.0,0.0,0.0,0.0,0.0,0.0,0.0,0.0,0.0,0.0,0.0,0.0,0.0,0.0,0.0,0.0,0.0,0.0,0.0,0.0,0.0,0.0,0.0,0.0,0.0,0.0,0.0,0.0,0.0,0.0,0.0,0.0,0.0,0.0,0.0,0.0,0.0,0.0,0.0,0.0,0.0,0.0,0.0,0.0,0.0,0.0,0.0,0.0,0.0,0.0,0.0,0.0,0.0,0.0,0.0,0.0,0.0,0.0,0.0,0.0,0.0,0.0,0.0,0.0,0.0,0.0,0.0,0.0,0.0,0.0,0.0,0.0,0.0,0.0,0.0,0.0,0.0,0.0,0.0,0.0,0.0,0.0,0.0,0.0,0.0,0.0,0.0,0.0,0.0,0.0,0.0,0.0,0.0,0.0,0.0,0.0,0.0,0.0,0.0,0.0,0.0,0.0,0.0,0.0,0.0,0.0,0.0,0.0,0.0,0.0,0.0,0.0,0.0,0.0,0.0,0.0,0.0,0.0,0.0,0.0,0.0,0.0,0.0,0.0,0.0,0.0,0.0,0.0,0.0,0.0,0.0,0.0,0.0,0.0,0.0,0.0,0.0,0.0,0.0,0.0,0.0,0.0,0.0,0.0,0.0,0.0,0.0,0.0,0.0,0.0,0.0,0.0,0.0,0.0,0.0,0.0,0.0,0.0,0.0,0.0,0.0,0.0,0.0,0.0,0.0,0.0,0.0,0.0,0.0,0.0,0.0,0.0,0.0,0.0,0.0,0.0,0.0,0.0,0.0,0.0,0.0,0.0,0.0,0.0,0.0,0.0,0.0,0.0,0.0,0.0,0.0,0.0,0.0,0.0,0.0,0.0,0.0,0.0,0.0,0.0,0.0,0.0,0.0,0.0,0.0,0.0,0.0,0.0,0.0,0.0,0.0,0.0,0.0,0.0,0.0,0.0,0.0,0.0,0.0,0.0,0.0,0.0,0.0,0.0,0.0,0.0,0.0,0.0,0.0,0.0,0.0,0.0,0.0,0.0,0.0,0.0,0.0,0.0,0.0,0.0,0.0
0.5959820548972611,0.5749658966302397,0.5568242839471175,0.5403096018462762,0.5246783255549631,0.5090045138763514,0.4927316572085472,0.4757616078317723,0.45809467523675157,0.4407418357671576,0.42423124219030806,0.40887674924927125,0.39469893171642706,0.3810780562734337,0.3681181972219891,0.3552282708270618,0.34187149056946775,0.3277778439907834,0.31265688855739876,0.2977133109633126,0.2836534698456282,0.2711826272278418,0.2608567562651397,0.252473586675224,0.2467420353027295,0.24310947210135989,0.24069007659171615,0.23853378110441667,0.235353130541821,0.23160017221987522,0.2271086838342378,0.22191442614714507,0.21621080594369366,0.20968729793649912,0.20352119956880385,0.19771407841060246,0.1920641100374222,0.18632911138609326,0.17981768652512214,0.1734827464698266,0.16742605278814313,0.16173078833461085,0.1564474168284928,0.1510258796078236,0.1462464900412744,0.1418759596397223,0.13758194895911421,0.13309207506332182,0.1278229338059724,0.12265343093840607,0.1178027581875079,0.11346173875126124,0.10973673329815084,0.10617037433062142,0.10326484025472803,0.10074557986520476,0.0982696442353269,0.09557131424477411,0.0921852942270332,0.08881045703663057,0.08571852870865533,0.08318479225083117,0.08140589519139738,0.0801044966876443,0.07964245845597938,0.07974984832020543,0.08005779745145968,0.08023580554248633,0.07965906012017161,0.0789240794311986,0.0783418846651874,0.07828867549658582,0.0790657158935753,0.08020873047149435,0.0,0.0,0.0,0.0,0.0,0.0,0.0,0.0,0.0,0.0,0.0,0.0,0.0,0.0,0.0,0.0,0.0,0.0,0.0,0.0,0.0,0.0,0.0,0.0,0.0,0.0,0.0,0.0,0.0,0.0,0.0,0.0,0.0,0.0,0.0,0.0,0.0,0.0,0.0,0.0,0.0,0.0,0.0,0.0,0.0,0.0,0.0,0.0,0.0,0.0,0.0,0.0,0.0,0.0,0.0,0.0,0.0,0.0,0.0,0.0,0.0,0.0,0.0,0.0,0.0,0.0,0.0,0.0,0.0,0.0,0.0,0.0,0.0,0.0,0.0,0.0,0.0,0.0,0.0,0.0,0.0,0.0,0.0,0.0,0.0,0.0,0.0,0.0,0.0,0.0,0.0,0.0,0.0,0.0,0.0,0.0,0.0,0.0,0.0,0.0,0.0,0.0,0.0,0.0,0.0,0.0,0.0,0.0,0.0,0.0,0.0,0.0,0.0,0.0,0.0,0.0,0.0,0.0,0.0,0.0,0.0,0.0,0.0,0.0,0.0,0.0,0.0,0.0,0.0,0.0,0.0,0.0,0.0,0.0,0.0,0.0,0.0,0.0,0.0,0.0,0.0,0.0,0.0,0.0,0.0,0.0,0.0,0.0,0.0,0.0,0.0,0.0,0.0,0.0,0.0,0.0,0.0,0.0,0.0,0.0,0.0,0.0,0.0,0.0,0.0,0.0,0.0,0.0,0.0,0.0,0.0,0.0,0.0,0.0,0.0,0.0,0.0,0.0,0.0,0.0,0.0,0.0,0.0,0.0,0.0,0.0,0.0,0.0,0.0,0.0,0.0,0.0,0.0,0.0,0.0,0.0,0.0,0.0,0.0,0.0,0.0,0.0,0.0,0.0,0.0,0.0,0.0,0.0,0.0,0.0,0.0,0.0,0.0,0.0,0.0,0.0,0.0,0.0,0.0,0.0,0.0,0.0,0.0,0.0,0.0,0.0
0.36493820018941314,0.41555153745844,0.4561390483560103,0.48054048323086873,0.48372883499539066,0.4619946478214293,0.41556259008880875,0.34728845341383197,0.2628587191540923,0.1700712898035298,0.0770080821947434,-0.007044141334466721,-0.0746360439906837,-0.12077058718495266,-0.14358625538833103,-0.14527863059769006,-0.1291796974206737,-0.10076335434851048,-0.06599242740047068,-0.03025306900790907,0.001675344475419774,0.02837100676228302,0.04980743296100734,0.06736812711285439,0.0830801173725129,0.09809220276512368,0.11434953430441153,0.1324623122137623,0.1522241194212996,0.17284340811826107,0.19263929895897325,0.21142807142968978,0.22905764950554064,0.2458897665283335,0.2626066988640092,0.27932695164334875,0.2971112512719543,0.3162233228219827,0.33648783102648006,0.3573548718690625,0.3775632955692628,0.3970142842960422,0.4156045153483,0.4337091925966984,0.45210304487411584,0.47126671998065134,0.4925164728957608,0.516443621981357,0.5430099209225011,0.5714436844471092,0.5998105335833859,0.6270404352016685,0.6517130973166487,0.6729703344551143,0.6907843240201027,0.7053772135098434,0.7189688357055262,0.7332674283762036,0.7495677157400658,0.7682848468715127,0.7882799750031751,0.808261559807485,0.8259614430530183,0.8390569372996993,0.8457853697229226,0.8451705363576715,0.837893261875882,0.825773881362874,0.8113034026607154,0.7969280396126989,0.7840903222483099,0.7736281296277494,0.7651006156606287,0.7571701416617365,0.0,0.0,0.0,0.0,0.0,0.0,0.0,0.0,0.0,0.0,0.0,0.0,0.0,0.0,0.0,0.0,0.0,0.0,0.0,0.0,0.0,0.0,0.0,0.0,0.0,0.0,0.0,0.0,0.0,0.0,0.0,0.0,0.0,0.0,0.0,0.0,0.0,0.0,0.0,0.0,0.0,0.0,0.0,0.0,0.0,0.0,0.0,0.0,0.0,0.0,0.0,0.0,0.0,0.0,0.0,0.0,0.0,0.0,0.0,0.0,0.0,0.0,0.0,0.0,0.0,0.0,0.0,0.0,0.0,0.0,0.0,0.0,0.0,0.0,0.0,0.0,0.0,0.0,0.0,0.0,0.0,0.0,0.0,0.0,0.0,0.0,0.0,0.0,0.0,0.0,0.0,0.0,0.0,0.0,0.0,0.0,0.0,0.0,0.0,0.0,0.0,0.0,0.0,0.0,0.0,0.0,0.0,0.0,0.0,0.0,0.0,0.0,0.0,0.0,0.0,0.0,0.0,0.0,0.0,0.0,0.0,0.0,0.0,0.0,0.0,0.0,0.0,0.0,0.0,0.0,0.0,0.0,0.0,0.0,0.0,0.0,0.0,0.0,0.0,0.0,0.0,0.0,0.0,0.0,0.0,0.0,0.0,0.0,0.0,0.0,0.0,0.0,0.0,0.0,0.0,0.0,0.0,0.0,0.0,0.0,0.0,0.0,0.0,0.0,0.0,0.0,0.0,0.0,0.0,0.0,0.0,0.0,0.0,0.0,0.0,0.0,0.0,0.0,0.0,0.0,0.0,0.0,0.0,0.0,0.0,0.0,0.0,0.0,0.0,0.0,0.0,0.0,0.0,0.0,0.0,0.0,0.0,0.0,0.0,0.0,0.0,0.0,0.0,0.0,0.0,0.0,0.0,0.0,0.0,0.0,0.0,0.0,0.0,0.0,0.0,0.0,0.0,0.0,0.0,0.0,0.0,0.0,0.0,0.0,0.0,0.0
-0.1499399704225915,-0.24343599410108757,-0.3189445802789291,-0.370032146581889,-0.39369661183531074,-0.39151352443414916,-0.3670010462009336,-0.32647706316099967,-0.2772503182271267,-0.22625772988899903,-0.1796424096766749,-0.1399447390688772,-0.10770727374688406,-0.0815038878218512,-0.058818847942687366,-0.037682323799330106,-0.01550382553095298,0.008882401651186683,0.03552904809646816,0.06358343816550721,0.09113879294064611,0.11745159714378406,0.141913227364391,0.16456634588556865,0.18598572427370172,0.2064990379471028,0.22733572708628003,0.24910159627717957,0.2719428999547331,0.29552853832476,0.3187588504805744,0.34135963318133444,0.3630646925897394,0.38407892980413294,0.40507135237581815,0.4266073430383166,0.45001589586984353,0.47608170060871813,0.504968315204953,0.5360252235641668,0.5673792645750094,0.5976147964750095,0.6249789185091255,0.6482269694811658,0.6669790947525155,0.6813308156756325,0.6932903415219915,0.7047770329002737,0.7174948216558292,0.7323594095368374,0.7487828409043137,0.7656408750051881,0.7808769635754095,0.7922079224625167,0.7977397243211592,0.7963013365668797,0.7881082804954271,0.7748196465160305,0.7589084098475216,0.7429200166413666,0.7284618505039371,0.7164397645996844,0.706608771079444,0.6977546779302695,0.6881003089615739,0.6754750273511685,0.658910524739595,0.6382358887597104,0.6142876443588634,0.5886527855342281,0.562808478118124,0.5389162475396265,0.5183819079585206,0.5018662320184177,0.0,0.0,0.0,0.0,0.0,0.0,0.0,0.0,0.0,0.0,0.0,0.0,0.0,0.0,0.0,0.0,0.0,0.0,0.0,0.0,0.0,0.0,0.0,0.0,0.0,0.0,0.0,0.0,0.0,0.0,0.0,0.0,0.0,0.0,0.0,0.0,0.0,0.0,0.0,0.0,0.0,0.0,0.0,0.0,0.0,0.0,0.0,0.0,0.0,0.0,0.0,0.0,0.0,0.0,0.0,0.0,0.0,0.0,0.0,0.0,0.0,0.0,0.0,0.0,0.0,0.0,0.0,0.0,0.0,0.0,0.0,0.0,0.0,0.0,0.0,0.0,0.0,0.0,0.0,0.0,0.0,0.0,0.0,0.0,0.0,0.0,0.0,0.0,0.0,0.0,0.0,0.0,0.0,0.0,0.0,0.0,0.0,0.0,0.0,0.0,0.0,0.0,0.0,0.0,0.0,0.0,0.0,0.0,0.0,0.0,0.0,0.0,0.0,0.0,0.0,0.0,0.0,0.0,0.0,0.0,0.0,0.0,0.0,0.0,0.0,0.0,0.0,0.0,0.0,0.0,0.0,0.0,0.0,0.0,0.0,0.0,0.0,0.0,0.0,0.0,0.0,0.0,0.0,0.0,0.0,0.0,0.0,0.0,0.0,0.0,0.0,0.0,0.0,0.0,0.0,0.0,0.0,0.0,0.0,0.0,0.0,0.0,0.0,0.0,0.0,0.0,0.0,0.0,0.0,0.0,0.0,0.0,0.0,0.0,0.0,0.0,0.0,0.0,0.0,0.0,0.0,0.0,0.0,0.0,0.0,0.0,0.0,0.0,0.0,0.0,0.0,0.0,0.0,0.0,0.0,0.0,0.0,0.0,0.0,0.0,0.0,0.0,0.0,0.0,0.0,0.0,0.0,0.0,0.0,0.0,0.0,0.0,0.0,0.0,0.0,0.0,0.0,0.0,0.0,0.0,0.0,0.0,0.0,0.0,0.0,0.0
-0.3411472962681405,-0.42131741390063887,-0.4768720624907011,-0.5042014478839884,-0.5044672135888956,-0.4808891207910212,-0.4400384219779732,-0.38975779847315417,-0.3376039472772606,-0.2902524617930175,-0.2503541245905932,-0.2184757342339927,-0.19298566388466531,-0.1710064466705329,-0.15019359490973605,-0.12751771105809853,-0.10176530844595819,-0.07307158715112196,-0.04263219296359112,-0.012763617719444682,0.015566646473798454,0.04143306953398093,0.06466185709664121,0.08574206074335071,0.10502916484068417,0.12400316730595762,0.14339468310526432,0.16348293372324962,0.18409933471691384,0.20436950065399578,0.22429683800514552,0.24373435883103373,0.26291638733504724,0.282456608690477,0.3028600795443202,0.3252964687014114,0.3503059846476359,0.3778414343734614,0.4071619744303201,0.4366080192245001,0.4649280773158112,0.4906914514612127,0.5130178974359856,0.5318673401701632,0.547775682952435,0.5626416814787968,0.5782283266184063,0.5959035976266304,0.6161275144518266,0.6380553705312398,0.6598654521834855,0.6790981781226674,0.6932420163973749,0.70038768873349,0.6998322277828013,0.6918268418163906,0.6783308475856848,0.6620827630755413,0.6458096511452904,0.6314795464903135,0.619686217720413,0.6100324427370625,0.6011602685208156,0.5912316135570908,0.5784220809145045,0.5616347045374601,0.540836181946431,0.5169762918733136,0.4916759637666891,0.4665976295277904,0.4434264468667869,0.42321286821063125,0.4062552230280768,0.39212031397628755,0.0,0.0,0.0,0.0,0.0,0.0,0.0,0.0,0.0,0.0,0.0,0.0,0.0,0.0,0.0,0.0,0.0,0.0,0.0,0.0,0.0,0.0,0.0,0.0,0.0,0.0,0.0,0.0,0.0,0.0,0.0,0.0,0.0,0.0,0.0,0.0,0.0,0.0,0.0,0.0,0.0,0.0,0.0,0.0,0.0,0.0,0.0,0.0,0.0,0.0,0.0,0.0,0.0,0.0,0.0,0.0,0.0,0.0,0.0,0.0,0.0,0.0,0.0,0.0,0.0,0.0,0.0,0.0,0.0,0.0,0.0,0.0,0.0,0.0,0.0,0.0,0.0,0.0,0.0,0.0,0.0,0.0,0.0,0.0,0.0,0.0,0.0,0.0,0.0,0.0,0.0,0.0,0.0,0.0,0.0,0.0,0.0,0.0,0.0,0.0,0.0,0.0,0.0,0.0,0.0,0.0,0.0,0.0,0.0,0.0,0.0,0.0,0.0,0.0,0.0,0.0,0.0,0.0,0.0,0.0,0.0,0.0,0.0,0.0,0.0,0.0,0.0,0.0,0.0,0.0,0.0,0.0,0.0,0.0,0.0,0.0,0.0,0.0,0.0,0.0,0.0,0.0,0.0,0.0,0.0,0.0,0.0,0.0,0.0,0.0,0.0,0.0,0.0,0.0,0.0,0.0,0.0,0.0,0.0,0.0,0.0,0.0,0.0,0.0,0.0,0.0,0.0,0.0,0.0,0.0,0.0,0.0,0.0,0.0,0.0,0.0,0.0,0.0,0.0,0.0,0.0,0.0,0.0,0.0,0.0,0.0,0.0,0.0,0.0,0.0,0.0,0.0,0.0,0.0,0.0,0.0,0.0,0.0,0.0,0.0,0.0,0.0,0.0,0.0,0.0,0.0,0.0,0.0,0.0,0.0,0.0,0.0,0.0,0.0,0.0,0.0,0.0,0.0,0.0,0.0,0.0,0.0,0.0,0.0,0.0,0.0
0.8660455676810717,0.8764990452815354,0.8515230237529453,0.7931769727486849,0.707080825864694,0.6020173502919011,0.48856674502837955,0.37695674124115347,0.2771717512480398,0.1960886227678181,0.13722666086434823,0.10063444477522365,0.08281235853791324,0.07946155624354119,0.0849504737493142,0.09397809953714747,0.10246125728209234,0.10749174371858938,0.10905409265057596,0.10797693252577668,0.10583760945199899,0.10428806978896099,0.10402079366542125,0.10604459191398898,0.1100259446197049,0.11506864127028957,0.12012368437430455,0.12401291784398306,0.1269921592475242,0.12942436172988056,0.13209865775133334,0.13595929895964806,0.14149250562233556,0.14945324643925023,0.15960504540397163,0.17117859000163693,0.18312971968242459,0.194253655987763,0.20430079055987166,0.2132279373445556,0.221566919464067,0.23030014040520114,0.24042007457842923,0.2531780378496861,0.2689973648116259,0.2875643829087307,0.30785725358388144,0.32805077130867494,0.3470609310434813,0.363422560859272,0.37623151476062233,0.3854143667625618,0.39128541110560194,0.39608083272421485,0.4012339557158499,0.4077823985372846,0.416078390103409,0.4253834096233466,0.4349407826878388,0.44293322795467627,0.4473956390455747,0.4467424134442563,0.4401282058365056,0.4279167838098274,0.41131337327194284,0.3921576933000458,0.37245813822247337,0.3538171621621216,0.3373405895249647,0.3231326168399513,0.31048595987221117,0.29817386300069043,0.284763083041119,0.2693449568827911,0.0,0.0,0.0,0.0,0.0,0.0,0.0,0.0,0.0,0.0,0.0,0.0,0.0,0.0,0.0,0.0,0.0,0.0,0.0,0.0,0.0,0.0,0.0,0.0,0.0,0.0,0.0,0.0,0.0,0.0,0.0,0.0,0.0,0.0,0.0,0.0,0.0,0.0,0.0,0.0,0.0,0.0,0.0,0.0,0.0,0.0,0.0,0.0,0.0,0.0,0.0,0.0,0.0,0.0,0.0,0.0,0.0,0.0,0.0,0.0,0.0,0.0,0.0,0.0,0.0,0.0,0.0,0.0,0.0,0.0,0.0,0.0,0.0,0.0,0.0,0.0,0.0,0.0,0.0,0.0,0.0,0.0,0.0,0.0,0.0,0.0,0.0,0.0,0.0,0.0,0.0,0.0,0.0,0.0,0.0,0.0,0.0,0.0,0.0,0.0,0.0,0.0,0.0,0.0,0.0,0.0,0.0,0.0,0.0,0.0,0.0,0.0,0.0,0.0,0.0,0.0,0.0,0.0,0.0,0.0,0.0,0.0,0.0,0.0,0.0,0.0,0.0,0.0,0.0,0.0,0.0,0.0,0.0,0.0,0.0,0.0,0.0,0.0,0.0,0.0,0.0,0.0,0.0,0.0,0.0,0.0,0.0,0.0,0.0,0.0,0.0,0.0,0.0,0.0,0.0,0.0,0.0,0.0,0.0,0.0,0.0,0.0,0.0,0.0,0.0,0.0,0.0,0.0,0.0,0.0,0.0,0.0,0.0,0.0,0.0,0.0,0.0,0.0,0.0,0.0,0.0,0.0,0.0,0.0,0.0,0.0,0.0,0.0,0.0,0.0,0.0,0.0,0.0,0.0,0.0,0.0,0.0,0.0,0.0,0.0,0.0,0.0,0.0,0.0,0.0,0.0,0.0,0.0,0.0,0.0,0.0,0.0,0.0,0.0,0.0,0.0,0.0,0.0,0.0,0.0,0.0,0.0,0.0,0.0,0.0,0.0
-0.2166940837257341,-0.27180429792812094,-0.29774092341869973,-0.2956845550144245,-0.2691061030702772,-0.2246063238210727,-0.17006022928214887,-0.11315001275718477,-0.06073976920265107,-0.016060740441806033,0.019821915510280855,0.048109838240638525,0.07144089790433017,0.09229111748064997,0.113862705541003,0.13784150924061098,0.1646118563052159,0.19338380376489112,0.22210782375186355,0.24960927201666525,0.27460377553872034,0.2964695840836888,0.3153267096254521,0.3314670511887673,0.3464077494036709,0.3611669532023432,0.37641147900365635,0.3923255431596776,0.4083077770964369,0.4243056061543732,0.43987052692935336,0.4548053958084534,0.4693243766939031,0.48377007250975257,0.4993553111114635,0.516804271363329,0.536387688425444,0.5577237081218741,0.5794864400350213,0.6005989025835248,0.6194554203892543,0.6347952472088038,0.6461230395498451,0.6536171769203905,0.6590598331761067,0.6641580612586088,0.6704389463355938,0.6787279134930576,0.6887040461570124,0.6991573347985386,0.7079540579164372,0.7126855543280742,0.7113327874362702,0.7029413112025723,0.6875117809501006,0.6665895854909036,0.6425843454681903,0.6180913554207714,0.5951949308905717,0.5749281062270812,0.5572440481191665,0.5410963014735141,0.5248499234052728,0.5067187161138658,0.48562201514643993,0.46118564219068703,0.43393401204876814,0.40512170737090775,0.37620647338521385,0.3490031427496367,0.3246392685480707,0.30353957316212404,0.2853934913365427,0.2690754695998354,0.0,0.0,0.0,0.0,0.0,0.0,0.0,0.0,0.0,0.0,0.0,0.0,0.0,0.0,0.0,0.0,0.0,0.0,0.0,0.0,0.0,0.0,0.0,0.0,0.0,0.0,0.0,0.0,0.0,0.0,0.0,0.0,0.0,0.0,0.0,0.0,0.0,0.0,0.0,0.0,0.0,0.0,0.0,0.0,0.0,0.0,0.0,0.0,0.0,0.0,0.0,0.0,0.0,0.0,0.0,0.0,0.0,0.0,0.0,0.0,0.0,0.0,0.0,0.0,0.0,0.0,0.0,0.0,0.0,0.0,0.0,0.0,0.0,0.0,0.0,0.0,0.0,0.0,0.0,0.0,0.0,0.0,0.0,0.0,0.0,0.0,0.0,0.0,0.0,0.0,0.0,0.0,0.0,0.0,0.0,0.0,0.0,0.0,0.0,0.0,0.0,0.0,0.0,0.0,0.0,0.0,0.0,0.0,0.0,0.0,0.0,0.0,0.0,0.0,0.0,0.0,0.0,0.0,0.0,0.0,0.0,0.0,0.0,0.0,0.0,0.0,0.0,0.0,0.0,0.0,0.0,0.0,0.0,0.0,0.0,0.0,0.0,0.0,0.0,0.0,0.0,0.0,0.0,0.0,0.0,0.0,0.0,0.0,0.0,0.0,0.0,0.0,0.0,0.0,0.0,0.0,0.0,0.0,0.0,0.0,0.0,0.0,0.0,0.0,0.0,0.0,0.0,0.0,0.0,0.0,0.0,0.0,0.0,0.0,0.0,0.0,0.0,0.0,0.0,0.0,0.0,0.0,0.0,0.0,0.0,0.0,0.0,0.0,0.0,0.0,0.0,0.0,0.0,0.0,0.0,0.0,0.0,0.0,0.0,0.0,0.0,0.0,0.0,0.0,0.0,0.0,0.0,0.0,0.0,0.0,0.0,0.0,0.0,0.0,0.0,0.0,0.0,0.0,0.0,0.0,0.0,0.0,0.0,0.0,0.0,0.0
0.05907761714598324,-0.0532976540365231,-0.16744548786771696,-0.2717404550719235,-0.35601290242311295,-0.41267442612334937,-0.43797633901635113,-0.43348331834204923,-0.4029746985028308,-0.35356693687224,-0.29365438175457975,-0.23134592785210242,-0.17401729598656998,-0.12484955219240332,-0.08474340762984607,-0.05228161857242684,-0.024715516687853722,9.270764133832102e-05,0.02522188310315612,0.05215945345359701,0.08118335724028385,0.11157259986943158,0.14132922965637504,0.1699417935426486,0.19697215871985552,0.22268021493301865,0.24786071642671684,0.2728423735310503,0.2990689403198905,0.32710738753456675,0.35692025031308267,0.38786623161572287,0.41832777628897455,0.4477898076774838,0.4757165801216061,0.5021801429779313,0.5278717468047289,0.5534090111662686,0.5804821898190646,0.6101388512746796,0.6427359739737868,0.6776981228615189,0.7130491271389227,0.7472975392133983,0.7785269706337938,0.8053880441915019,0.8275244989183088,0.8452082805856087,0.8607412469592461,0.8763195484634928,0.8938111481819747,0.9140875077498726,0.9363425680077827,0.9588633272007747,0.978925909078192,0.9936222824346322,1.0006505165814363,0.9989200269329451,0.9887742231415946,0.9723716970912808,0.9527984232746486,0.933161138998846,0.9155956920478073,0.90098862670351,0.8889094562134915,0.8778255836212351,0.8656717614162558,0.8503101690188674,0.8307416713543042,0.8069646008157365,0.7800311962625279,0.7516851069336054,0.7235711564511702,0.6975502940248436,0.0,0.0,0.0,0.0,0.0,0.0,0.0,0.0,0.0,0.0,0.0,0.0,0.0,0.0,0.0,0.0,0.0,0.0,0.0,0.0,0.0,0.0,0.0,0.0,0.0,0.0,0.0,0.0,0.0,0.0,0.0,0.0,0.0,0.0,0.0,0.0,0.0,0.0,0.0,0.0,0.0,0.0,0.0,0.0,0.0,0.0,0.0,0.0,0.0,0.0,0.0,0.0,0.0,0.0,0.0,0.0,0.0,0.0,0.0,0.0,0.0,0.0,0.0,0.0,0.0,0.0,0.0,0.0,0.0,0.0,0.0,0.0,0.0,0.0,0.0,0.0,0.0,0.0,0.0,0.0,0.0,0.0,0.0,0.0,0.0,0.0,0.0,0.0,0.0,0.0,0.0,0.0,0.0,0.0,0.0,0.0,0.0,0.0,0.0,0.0,0.0,0.0,0.0,0.0,0.0,0.0,0.0,0.0,0.0,0.0,0.0,0.0,0.0,0.0,0.0,0.0,0.0,0.0,0.0,0.0,0.0,0.0,0.0,0.0,0.0,0.0,0.0,0.0,0.0,0.0,0.0,0.0,0.0,0.0,0.0,0.0,0.0,0.0,0.0,0.0,0.0,0.0,0.0,0.0,0.0,0.0,0.0,0.0,0.0,0.0,0.0,0.0,0.0,0.0,0.0,0.0,0.0,0.0,0.0,0.0,0.0,0.0,0.0,0.0,0.0,0.0,0.0,0.0,0.0,0.0,0.0,0.0,0.0,0.0,0.0,0.0,0.0,0.0,0.0,0.0,0.0,0.0,0.0,0.0,0.0,0.0,0.0,0.0,0.0,0.0,0.0,0.0,0.0,0.0,0.0,0.0,0.0,0.0,0.0,0.0,0.0,0.0,0.0,0.0,0.0,0.0,0.0,0.0,0.0,0.0,0.0,0.0,0.0,0.0,0.0,0.0,0.0,0.0,0.0,0.0,0.0,0.0,0.0,0.0,0.0,0.0
0.33000114872294034,0.35215129687836616,0.37249957793363186,0.3909409209476153,0.40803195774938533,0.42470595603824635,0.44241028221580886,0.4623722803086725,0.48521461734450355,0.5106266735864697,0.5371208448553128,0.5627140236599089,0.5851090763903524,0.6023274684589329,0.6132213894235541,0.6176082101794881,0.6167391494672726,0.6126908768908984,0.607817429296978,0.6040552891612496,0.6021600089439749,0.6019519976842788,0.6020774705648171,0.6004612819299888,0.5948891888989454,0.5834181535201449,0.5654442950828509,0.5415482319793506,0.513430940201295,0.48348298169770726,0.4539461803952692,0.4271249988836499,0.4044111377525175,0.3862291524347597,0.37207677449646903,0.36046015909053686,0.3502255672595484,0.34017501627411295,0.32955006704222994,0.31813729393468887,0.3058334527620692,0.2936148827631296,0.2822629403799944,0.27238316611349106,0.2641978133729087,0.25703342128869844,0.2507511241207765,0.2446744809187723,0.2381960509527248,0.2309878510329628,0.2226594790705531,0.214271243692908,0.20672073038893832,0.20096917703114514,0.19777788869301688,0.19698368815741732,0.19904714875127752,0.20337505265414982,0.20903094334032152,0.21499237219339115,0.21981701508273882,0.22379089644858505,0.22693014176023069,0.22956959778229644,0.23220685569376545,0.23462317065066401,0.23798267240933188,0.2423396189559896,0.24743532999610937,0.2528284216413209,0.2576972707086274,0.26230765520701504,0.26644509682352047,0.2700862087035835,0.0,0.0,0.0,0.0,0.0,0.0,0.0,0.0,0.0,0.0,0.0,0.0,0.0,0.0,0.0,0.0,0.0,0.0,0.0,0.0,0.0,0.0,0.0,0.0,0.0,0.0,0.0,0.0,0.0,0.0,0.0,0.0,0.0,0.0,0.0,0.0,0.0,0.0,0.0,0.0,0.0,0.0,0.0,0.0,0.0,0.0,0.0,0.0,0.0,0.0,0.0,0.0,0.0,0.0,0.0,0.0,0.0,0.0,0.0,0.0,0.0,0.0,0.0,0.0,0.0,0.0,0.0,0.0,0.0,0.0,0.0,0.0,0.0,0.0,0.0,0.0,0.0,0.0,0.0,0.0,0.0,0.0,0.0,0.0,0.0,0.0,0.0,0.0,0.0,0.0,0.0,0.0,0.0,0.0,0.0,0.0,0.0,0.0,0.0,0.0,0.0,0.0,0.0,0.0,0.0,0.0,0.0,0.0,0.0,0.0,0.0,0.0,0.0,0.0,0.0,0.0,0.0,0.0,0.0,0.0,0.0,0.0,0.0,0.0,0.0,0.0,0.0,0.0,0.0,0.0,0.0,0.0,0.0,0.0,0.0,0.0,0.0,0.0,0.0,0.0,0.0,0.0,0.0,0.0,0.0,0.0,0.0,0.0,0.0,0.0,0.0,0.0,0.0,0.0,0.0,0.0,0.0,0.0,0.0,0.0,0.0,0.0,0.0,0.0,0.0,0.0,0.0,0.0,0.0,0.0,0.0,0.0,0.0,0.0,0.0,0.0,0.0,0.0,0.0,0.0,0.0,0.0,0.0,0.0,0.0,0.0,0.0,0.0,0.0,0.0,0.0,0.0,0.0,0.0,0.0,0.0,0.0,0.0,0.0,0.0,0.0,0.0,0.0,0.0,0.0,0.0,0.0,0.0,0.0,0.0,0.0,0.0,0.0,0.0,0.0,0.0,0.0,0.0,0.0,0.0,0.0,0.0,0.0,0.0,0.0,0.0
-0.145290779659843,-0.22217779617469077,-0.27568178071185173,-0.30262167195713835,-0.3041731872433455,-0.2834866266404207,-0.24668666075292217,-0.20102453219291397,-0.15348682724903487,-0.11024963375900838,-0.07391759026493211,-0.04521995481852551,-0.02286597681445332,-0.004351982540931391,0.012479436920954354,0.03052920367870766,0.051090653605247116,0.07424565383600205,0.09907001719789744,0.12353567396785019,0.14677317842779522,0.16780055956033244,0.1862754536391736,0.20249201693672628,0.21670345335914462,0.23037632398001695,0.2443016698187928,0.25888746874887897,0.27410617183267,0.2891733820281078,0.3041071340751625,0.318536116591574,0.332336252621845,0.34572032672861375,0.3588404661229445,0.3727874831491551,0.38810215605667675,0.4049566068441833,0.42303476039091287,0.44119705237691303,0.4588728887628229,0.475024116173442,0.4889087924529503,0.500349194053212,0.5094582830010301,0.5177744933970584,0.5265355244132357,0.5367300413137643,0.5487278136839472,0.5618783442187586,0.5750732183900211,0.5865317021329972,0.5943716886071098,0.5971064333146823,0.5940634201497673,0.5854201906223121,0.5725667285030558,0.5575140894313393,0.5423187099180953,0.5284569300502323,0.5165833002587906,0.5065021329812972,0.4972673553098627,0.4875309865215083,0.4758353635938728,0.4614311925155111,0.4442003661949352,0.42474720491824763,0.40420004700900425,0.38367594948035694,0.36457597912342327,0.3476956966132428,0.33324836182588513,0.32086910749650027,0.0,0.0,0.0,0.0,0.0,0.0,0.0,0.0,0.0,0.0,0.0,0.0,0.0,0.0,0.0,0.0,0.0,0.0,0.0,0.0,0.0,0.0,0.0,0.0,0.0,0.0,0.0,0.0,0.0,0.0,0.0,0.0,0.0,0.0,0.0,0.0,0.0,0.0,0.0,0.0,0.0,0.0,0.0,0.0,0.0,0.0,0.0,0.0,0.0,0.0,0.0,0.0,0.0,0.0,0.0,0.0,0.0,0.0,0.0,0.0,0.0,0.0,0.0,0.0,0.0,0.0,0.0,0.0,0.0,0.0,0.0,0.0,0.0,0.0,0.0,0.0,0.0,0.0,0.0,0.0,0.0,0.0,0.0,0.0,0.0,0.0,0.0,0.0,0.0,0.0,0.0,0.0,0.0,0.0,0.0,0.0,0.0,0.0,0.0,0.0,0.0,0.0,0.0,0.0,0.0,0.0,0.0,0.0,0.0,0.0,0.0,0.0,0.0,0.0,0.0,0.0,0.0,0.0,0.0,0.0,0.0,0.0,0.0,0.0,0.0,0.0,0.0,0.0,0.0,0.0,0.0,0.0,0.0,0.0,0.0,0.0,0.0,0.0,0.0,0.0,0.0,0.0,0.0,0.0,0.0,0.0,0.0,0.0,0.0,0.0,0.0,0.0,0.0,0.0,0.0,0.0,0.0,0.0,0.0,0.0,0.0,0.0,0.0,0.0,0.0,0.0,0.0,0.0,0.0,0.0,0.0,0.0,0.0,0.0,0.0,0.0,0.0,0.0,0.0,0.0,0.0,0.0,0.0,0.0,0.0,0.0,0.0,0.0,0.0,0.0,0.0,0.0,0.0,0.0,0.0,0.0,0.0,0.0,0.0,0.0,0.0,0.0,0.0,0.0,0.0,0.0,0.0,0.0,0.0,0.0,0.0,0.0,0.0,0.0,0.0,0.0,0.0,0.0,0.0,0.0,0.0,0.0,0.0,0.0,0.0,0.0
-0.1253918370601516,-0.15077379827619408,-0.16120248639138027,-0.15763551550647306,-0.14162102230942164,-0.11672690221953239,-0.0871845268493327,-0.0570044163057783,-0.029949835454363194,-0.006847198041089585,0.012588283983960603,0.029895276153652433,0.04719365377982368,0.06575649453715722,0.08750095029100811,0.11287085717262388,0.14129548988863455,0.1714110023042909,0.20084938544419048,0.22860474431921177,0.2537175451145322,0.2759297423889011,0.29562835082875805,0.31306912626925565,0.32978127705161353,0.34666845418511455,0.36425150759877417,0.3825759770112982,0.40083319722238997,0.4189384565874574,0.4364698532423733,0.45326496201312716,0.4695236031938384,0.4854334289845193,0.5020556767880262,0.5200444423365027,0.5396827116006065,0.560704378642392,0.5820053651997548,0.6027299876104024,0.6217157595201971,0.6381522737380757,0.6518851540909456,0.663294916467431,0.6738824722971452,0.6851153927173699,0.6981612322277597,0.713421443005205,0.7301697025085077,0.7468712643323364,0.7613125752655707,0.7712348572138441,0.7749577319194646,0.7718966885982743,0.7625677515255254,0.7487208578984416,0.7327097948263274,0.7168164722918543,0.7026356706449595,0.6906481789044836,0.6802844801897632,0.6701781245386352,0.6586752126642439,0.6443696234792383,0.6266188712721267,0.6056109175489551,0.5823109937077061,0.5581406834608673,0.5344780566852573,0.5125331446778696,0.4926968870537857,0.4746618151492755,0.45760615425749074,0.4403880488403051,0.0,0.0,0.0,0.0,0.0,0.0,0.0,0.0,0.0,0.0,0.0,0.0,0.0,0.0,0.0,0.0,0.0,0.0,0.0,0.0,0.0,0.0,0.0,0.0,0.0,0.0,0.0,0.0,0.0,0.0,0.0,0.0,0.0,0.0,0.0,0.0,0.0,0.0,0.0,0.0,0.0,0.0,0.0,0.0,0.0,0.0,0.0,0.0,0.0,0.0,0.0,0.0,0.0,0.0,0.0,0.0,0.0,0.0,0.0,0.0,0.0,0.0,0.0,0.0,0.0,0.0,0.0,0.0,0.0,0.0,0.0,0.0,0.0,0.0,0.0,0.0,0.0,0.0,0.0,0.0,0.0,0.0,0.0,0.0,0.0,0.0,0.0,0.0,0.0,0.0,0.0,0.0,0.0,0.0,0.0,0.0,0.0,0.0,0.0,0.0,0.0,0.0,0.0,0.0,0.0,0.0,0.0,0.0,0.0,0.0,0.0,0.0,0.0,0.0,0.0,0.0,0.0,0.0,0.0,0.0,0.0,0.0,0.0,0.0,0.0,0.0,0.0,0.0,0.0,0.0,0.0,0.0,0.0,0.0,0.0,0.0,0.0,0.0,0.0,0.0,0.0,0.0,0.0,0.0,0.0,0.0,0.0,0.0,0.0,0.0,0.0,0.0,0.0,0.0,0.0,0.0,0.0,0.0,0.0,0.0,0.0,0.0,0.0,0.0,0.0,0.0,0.0,0.0,0.0,0.0,0.0,0.0,0.0,0.0,0.0,0.0,0.0,0.0,0.0,0.0,0.0,0.0,0.0,0.0,0.0,0.0,0.0,0.0,0.0,0.0,0.0,0.0,0.0,0.0,0.0,0.0,0.0,0.0,0.0,0.0,0.0,0.0,0.0,0.0,0.0,0.0,0.0,0.0,0.0,0.0,0.0,0.0,0.0,0.0,0.0,0.0,0.0,0.0,0.0,0.0,0.0,0.0,0.0,0.0,0.0,0.0
0.2219914682377231,0.24499167603267458,0.26494253222782693,0.2828041788372519,0.2999529392771445,0.3174586018098072,0.335907570501251,0.35529705348671903,0.37498861909710934,0.3942997370322409,0.41260098092287106,0.4296342005934768,0.44565157474561107,0.46131300287035487,0.4776119496635111,0.49546312021650063,0.5153392157542644,0.5370095312843226,0.5594378528114808,0.581158495221245,0.6005679351729764,0.6164472622243259,0.6283674878230342,0.636808734470623,0.6432066852810703,0.6493464668200142,0.656826047688541,0.6664785055359292,0.6779693198095095,0.6898690280318359,0.6998728515928875,0.705456297870212,0.7045895232488244,0.6963224693659654,0.6810983101474797,0.6605924876111973,0.6372671130120732,0.6136918977764109,0.5918453812849851,0.5726511810534963,0.5557697281298846,0.5398060793257712,0.5227942723039976,0.502804556501058,0.4785572354675435,0.44976858654231316,0.41723883064469874,0.3826420013245384,0.34802056194095776,0.3155785122907582,0.28685114539917883,0.26254783620432554,0.24248973034507926,0.22560870009283754,0.21082032050485458,0.19668743468892907,0.18205497164644546,0.16633743059526274,0.14942768726934755,0.1323783738889611,0.11619603985976144,0.10188651799083172,0.09018513084544619,0.08110838781348068,0.07485091788758774,0.07065537872832717,0.0674810954890393,0.06432212720457174,0.06016434240004541,0.055297711881928,0.04982749391415852,0.04408267131533953,0.03845912356369729,0.0328783865492679,0.0,0.0,0.0,0.0,0.0,0.0,0.0,0.0,0.0,0.0,0.0,0.0,0.0,0.0,0.0,0.0,0.0,0.0,0.0,0.0,0.0,0.0,0.0,0.0,0.0,0.0,0.0,0.0,0.0,0.0,0.0,0.0,0.0,0.0,0.0,0.0,0.0,0.0,0.0,0.0,0.0,0.0,0.0,0.0,0.0,0.0,0.0,0.0,0.0,0.0,0.0,0.0,0.0,0.0,0.0,0.0,0.0,0.0,0.0,0.0,0.0,0.0,0.0,0.0,0.0,0.0,0.0,0.0,0.0,0.0,0.0,0.0,0.0,0.0,0.0,0.0,0.0,0.0,0.0,0.0,0.0,0.0,0.0,0.0,0.0,0.0,0.0,0.0,0.0,0.0,0.0,0.0,0.0,0.0,0.0,0.0,0.0,0.0,0.0,0.0,0.0,0.0,0.0,0.0,0.0,0.0,0.0,0.0,0.0,0.0,0.0,0.0,0.0,0.0,0.0,0.0,0.0,0.0,0.0,0.0,0.0,0.0,0.0,0.0,0.0,0.0,0.0,0.0,0.0,0.0,0.0,0.0,0.0,0.0,0.0,0.0,0.0,0.0,0.0,0.0,0.0,0.0,0.0,0.0,0.0,0.0,0.0,0.0,0.0,0.0,0.0,0.0,0.0,0.0,0.0,0.0,0.0,0.0,0.0,0.0,0.0,0.0,0.0,0.0,0.0,0.0,0.0,0.0,0.0,0.0,0.0,0.0,0.0,0.0,0.0,0.0,0.0,0.0,0.0,0.0,0.0,0.0,0.0,0.0,0.0,0.0,0.0,0.0,0.0,0.0,0.0,0.0,0.0,0.0,0.0,0.0,0.0,0.0,0.0,0.0,0.0,0.0,0.0,0.0,0.0,0.0,0.0,0.0,0.0,0.0,0.0,0.0,0.0,0.0,0.0,0.0,0.0,0.0,0.0,0.0,0.0,0.0,0.0,0.0,0.0,0.0
0.26254783620432554,0.24248973034507926,0.22560870009283754,0.21082032050485458,0.19668743468892907,0.18205497164644546,0.16633743059526274,0.14942768726934755,0.1323783738889611,0.11619603985976144,0.10188651799083172,0.09018513084544619,0.08110838781348068,0.07485091788758774,0.07065537872832717,0.0674810954890393,0.06432212720457174,0.06016434240004541,0.055297711881928,0.04982749391415852,0.04408267131533953,0.03845912356369729,0.0328783865492679,0.028048379106367243,0.023715107769168197,0.019414850914198294,0.014720830141513912,0.009055982496332238,0.0033218085909764617,-0.0020028915830047865,-0.006311808437090722,-0.009017463280669463,-0.010171495583288722,-0.008953226230103138,-0.005731420368841923,-0.001246123926232501,0.003626623620381299,0.007661171841588392,0.011056002149926523,0.013596077980731976,0.015282077057931468,0.01627071052143206,0.01632401658193991,0.01628755118874063,0.01627019414118776,0.016254838822837632,0.016181164774546036,0.01566465509514877,0.01526704389910743,0.015129403535634248,0.015379447369603998,0.01609161902766001,0.016986612084922536,0.018311071162855422,0.019916136080339212,0.021614675332913513,0.023250109450859764,0.024532722803260788,0.02575681203622514,0.027056151337470278,0.028574845463417084,0.03040859987405952,0.03239902719155124,0.03463883998284091,0.03700445224229526,0.03935206879020447,0.04157382904847336,0.04370447384904273,0.04577848106602732,0.0478797193762741,0.05014180865974056,0.05273905822288721,0.056147273457580596,0.060256666136939314,0.0,0.0,0.0,0.0,0.0,0.0,0.0,0.0,0.0,0.0,0.0,0.0,0.0,0.0,0.0,0.0,0.0,0.0,0.0,0.0,0.0,0.0,0.0,0.0,0.0,0.0,0.0,0.0,0.0,0.0,0.0,0.0,0.0,0.0,0.0,0.0,0.0,0.0,0.0,0.0,0.0,0.0,0.0,0.0,0.0,0.0,0.0,0.0,0.0,0.0,0.0,0.0,0.0,0.0,0.0,0.0,0.0,0.0,0.0,0.0,0.0,0.0,0.0,0.0,0.0,0.0,0.0,0.0,0.0,0.0,0.0,0.0,0.0,0.0,0.0,0.0,0.0,0.0,0.0,0.0,0.0,0.0,0.0,0.0,0.0,0.0,0.0,0.0,0.0,0.0,0.0,0.0,0.0,0.0,0.0,0.0,0.0,0.0,0.0,0.0,0.0,0.0,0.0,0.0,0.0,0.0,0.0,0.0,0.0,0.0,0.0,0.0,0.0,0.0,0.0,0.0,0.0,0.0,0.0,0.0,0.0,0.0,0.0,0.0,0.0,0.0,0.0,0.0,0.0,0.0,0.0,0.0,0.0,0.0,0.0,0.0,0.0,0.0,0.0,0.0,0.0,0.0,0.0,0.0,0.0,0.0,0.0,0.0,0.0,0.0,0.0,0.0,0.0,0.0,0.0,0.0,0.0,0.0,0.0,0.0,0.0,0.0,0.0,0.0,0.0,0.0,0.0,0.0,0.0,0.0,0.0,0.0,0.0,0.0,0.0,0.0,0.0,0.0,0.0,0.0,0.0,0.0,0.0,0.0,0.0,0.0,0.0,0.0,0.0,0.0,0.0,0.0,0.0,0.0,0.0,0.0,0.0,0.0,0.0,0.0,0.0,0.0,0.0,0.0,0.0,0.0,0.0,0.0,0.0,0.0,0.0,0.0,0.0,0.0,0.0,0.0,0.0,0.0,0.0,0.0,0.0,0.0,0.0,0.0,0.0,0.0
0.19259556984951196,0.2009493916627803,0.20515182326300396,0.20494957410521208,0.20121393303649032,0.1951077352242872,0.18795376892229135,0.18090666824110563,0.17430760688888242,0.16873439034857868,0.1641451736592903,0.16024375052993492,0.1566615132192073,0.15263940816407534,0.14864555808473193,0.14522169583412434,0.1430695020241352,0.1426817479816809,0.14332322545672393,0.1444863064436208,0.14435041921351202,0.14019113619410292,0.12870198274415456,0.10589339723404233,0.0699753794601979,0.02051940577523833,-0.040634957343172455,-0.10934219343754333,-0.18040511051451863,-0.24610841312968132,-0.2992705308499538,-0.33410820909741096,-0.3473863696192412,-0.3399454967029662,-0.3140052577806209,-0.2745228943891725,-0.22755958974542392,-0.17905661321510938,-0.1346221187526439,-0.09621497797539232,-0.06403461459027535,-0.03642129177188491,-0.010726856810977575,0.014832464353926881,0.042913159942413535,0.07450652473313243,0.10935538176857691,0.14616402471554743,0.18228298265091178,0.21662931042052797,0.24820282262761187,0.276825413635528,0.3030549062420725,0.32718611821122773,0.3510098521558295,0.3755807844568414,0.4014495393744821,0.42852998672701875,0.4555724184462712,0.48221048538387645,0.507697802385309,0.531615745844332,0.554005067211965,0.5748549836480641,0.595397272106852,0.6165225866532459,0.6388237190015723,0.6623499963082946,0.6861358576531005,0.7096175771769997,0.7318523199014684,0.7522162737703398,0.7706949254046241,0.7876336925817771,0.0,0.0,0.0,0.0,0.0,0.0,0.0,0.0,0.0,0.0,0.0,0.0,0.0,0.0,0.0,0.0,0.0,0.0,0.0,0.0,0.0,0.0,0.0,0.0,0.0,0.0,0.0,0.0,0.0,0.0,0.0,0.0,0.0,0.0,0.0,0.0,0.0,0.0,0.0,0.0,0.0,0.0,0.0,0.0,0.0,0.0,0.0,0.0,0.0,0.0,0.0,0.0,0.0,0.0,0.0,0.0,0.0,0.0,0.0,0.0,0.0,0.0,0.0,0.0,0.0,0.0,0.0,0.0,0.0,0.0,0.0,0.0,0.0,0.0,0.0,0.0,0.0,0.0,0.0,0.0,0.0,0.0,0.0,0.0,0.0,0.0,0.0,0.0,0.0,0.0,0.0,0.0,0.0,0.0,0.0,0.0,0.0,0.0,0.0,0.0,0.0,0.0,0.0,0.0,0.0,0.0,0.0,0.0,0.0,0.0,0.0,0.0,0.0,0.0,0.0,0.0,0.0,0.0,0.0,0.0,0.0,0.0,0.0,0.0,0.0,0.0,0.0,0.0,0.0,0.0,0.0,0.0,0.0,0.0,0.0,0.0,0.0,0.0,0.0,0.0,0.0,0.0,0.0,0.0,0.0,0.0,0.0,0.0,0.0,0.0,0.0,0.0,0.0,0.0,0.0,0.0,0.0,0.0,0.0,0.0,0.0,0.0,0.0,0.0,0.0,0.0,0.0,0.0,0.0,0.0,0.0,0.0,0.0,0.0,0.0,0.0,0.0,0.0,0.0,0.0,0.0,0.0,0.0,0.0,0.0,0.0,0.0,0.0,0.0,0.0,0.0,0.0,0.0,0.0,0.0,0.0,0.0,0.0,0.0,0.0,0.0,0.0,0.0,0.0,0.0,0.0,0.0,0.0,0.0,0.0,0.0,0.0,0.0,0.0,0.0,0.0,0.0,0.0,0.0,0.0,0.0,0.0,0.0,0.0,0.0,0.0
0.276825413635528,0.3030549062420725,0.32718611821122773,0.3510098521558295,0.3755807844568414,0.4014495393744821,0.42852998672701875,0.4555724184462712,0.48221048538387645,0.507697802385309,0.531615745844332,0.554005067211965,0.5748549836480641,0.595397272106852,0.6165225866532459,0.6388237190015723,0.6623499963082946,0.6861358576531005,0.7096175771769997,0.7318523199014684,0.7522162737703398,0.7706949254046241,0.7876336925817771,0.8046015320234778,0.8230437725429822,0.844003990107866,0.8676281343890815,0.8927480070199872,0.917392939198593,0.9390434400523597,0.9553032977314424,0.9645613433735388,0.9664799505517249,0.9618991007294061,0.9530760456986729,0.9427722110960222,0.9334030956130511,0.9262940303032844,0.9212910936853373,0.9170609800634382,0.9114629126799136,0.9022448478525634,0.8876894265527927,0.8672829344400627,0.8417461039670288,0.8128271831527145,0.7827822180848797,0.7536346454126021,0.7270409669687169,0.7035274574632845,0.6826587340431808,0.6633195883171958,0.6439771232150298,0.6237541193038746,0.601940782893029,0.5784453666477753,0.5537754143926082,0.5286273537141591,0.5044671451868894,0.48213029524705486,0.4620510892098698,0.44423124046802065,0.4280281267527884,0.4133754269230785,0.3995254981065436,0.38576979695491376,0.3716351090941239,0.3566535777738777,0.34163324722559446,0.32685765004273093,0.3125958528272564,0.2990389777202272,0.2858677856945392,0.2737146348004699,0.0,0.0,0.0,0.0,0.0,0.0,0.0,0.0,0.0,0.0,0.0,0.0,0.0,0.0,0.0,0.0,0.0,0.0,0.0,0.0,0.0,0.0,0.0,0.0,0.0,0.0,0.0,0.0,0.0,0.0,0.0,0.0,0.0,0.0,0.0,0.0,0.0,0.0,0.0,0.0,0.0,0.0,0.0,0.0,0.0,0.0,0.0,0.0,0.0,0.0,0.0,0.0,0.0,0.0,0.0,0.0,0.0,0.0,0.0,0.0,0.0,0.0,0.0,0.0,0.0,0.0,0.0,0.0,0.0,0.0,0.0,0.0,0.0,0.0,0.0,0.0,0.0,0.0,0.0,0.0,0.0,0.0,0.0,0.0,0.0,0.0,0.0,0.0,0.0,0.0,0.0,0.0,0.0,0.0,0.0,0.0,0.0,0.0,0.0,0.0,0.0,0.0,0.0,0.0,0.0,0.0,0.0,0.0,0.0,0.0,0.0,0.0,0.0,0.0,0.0,0.0,0.0,0.0,0.0,0.0,0.0,0.0,0.0,0.0,0.0,0.0,0.0,0.0,0.0,0.0,0.0,0.0,0.0,0.0,0.0,0.0,0.0,0.0,0.0,0.0,0.0,0.0,0.0,0.0,0.0,0.0,0.0,0.0,0.0,0.0,0.0,0.0,0.0,0.0,0.0,0.0,0.0,0.0,0.0,0.0,0.0,0.0,0.0,0.0,0.0,0.0,0.0,0.0,0.0,0.0,0.0,0.0,0.0,0.0,0.0,0.0,0.0,0.0,0.0,0.0,0.0,0.0,0.0,0.0,0.0,0.0,0.0,0.0,0.0,0.0,0.0,0.0,0.0,0.0,0.0,0.0,0.0,0.0,0.0,0.0,0.0,0.0,0.0,0.0,0.0,0.0,0.0,0.0,0.0,0.0,0.0,0.0,0.0,0.0,0.0,0.0,0.0,0.0,0.0,0.0,0.0,0.0,0.0,0.0,0.0,0.0
0.5784453666477753,0.5537754143926082,0.5286273537141591,0.5044671451868894,0.48213029524705486,0.4620510892098698,0.44423124046802065,0.4280281267527884,0.4133754269230785,0.3995254981065436,0.38576979695491376,0.3716351090941239,0.3566535777738777,0.34163324722559446,0.32685765004273093,0.3125958528272564,0.2990389777202272,0.2858677856945392,0.2737146348004699,0.26222905730136714,0.25092825613271125,0.23940506855026192,0.22704392478540567,0.2147584398963951,0.2027037884359161,0.1910150024445542,0.17977115938029667,0.16846199341341156,0.1578675939553525,0.14760178245901498,0.13717564480911895,0.12624457119715893,0.11429665507196905,0.10256097616239639,0.09147471228996691,0.08143688500070662,0.07271798301402119,0.06489541882156606,0.058655079454676184,0.0534561120710378,0.04857314523871849,0.04337945785326517,0.03712517787980436,0.0306952851549196,0.024427239296612006,0.01874560571002414,0.014040932692509162,0.010138579855311698,0.007718298578231499,0.006447262820763824,0.005761301433545603,0.0050805677545481265,0.00362600883553207,0.001872176751587698,-9.543514762332879e-05,-0.0020840821876213843,-0.003879797183412905,-0.00568127955289129,-0.006959653562989372,-0.007862325339474981,-0.008657160707159328,-0.009596569477130706,-0.011086451748285117,-0.012626343475386624,-0.014005629060369094,-0.0149728545059356,-0.015313341770848506,-0.015153912130367118,-0.014194527189038615,-0.012642780071722495,-0.010817934014644034,-0.00903305276533529,-0.007863226407727488,-0.006885433952049605,0.0,0.0,0.0,0.0,0.0,0.0,0.0,0.0,0.0,0.0,0.0,0.0,0.0,0.0,0.0,0.0,0.0,0.0,0.0,0.0,0.0,0.0,0.0,0.0,0.0,0.0,0.0,0.0,0.0,0.0,0.0,0.0,0.0,0.0,0.0,0.0,0.0,0.0,0.0,0.0,0.0,0.0,0.0,0.0,0.0,0.0,0.0,0.0,0.0,0.0,0.0,0.0,0.0,0.0,0.0,0.0,0.0,0.0,0.0,0.0,0.0,0.0,0.0,0.0,0.0,0.0,0.0,0.0,0.0,0.0,0.0,0.0,0.0,0.0,0.0,0.0,0.0,0.0,0.0,0.0,0.0,0.0,0.0,0.0,0.0,0.0,0.0,0.0,0.0,0.0,0.0,0.0,0.0,0.0,0.0,0.0,0.0,0.0,0.0,0.0,0.0,0.0,0.0,0.0,0.0,0.0,0.0,0.0,0.0,0.0,0.0,0.0,0.0,0.0,0.0,0.0,0.0,0.0,0.0,0.0,0.0,0.0,0.0,0.0,0.0,0.0,0.0,0.0,0.0,0.0,0.0,0.0,0.0,0.0,0.0,0.0,0.0,0.0,0.0,0.0,0.0,0.0,0.0,0.0,0.0,0.0,0.0,0.0,0.0,0.0,0.0,0.0,0.0,0.0,0.0,0.0,0.0,0.0,0.0,0.0,0.0,0.0,0.0,0.0,0.0,0.0,0.0,0.0,0.0,0.0,0.0,0.0,0.0,0.0,0.0,0.0,0.0,0.0,0.0,0.0,0.0,0.0,0.0,0.0,0.0,0.0,0.0,0.0,0.0,0.0,0.0,0.0,0.0,0.0,0.0,0.0,0.0,0.0,0.0,0.0,0.0,0.0,0.0,0.0,0.0,0.0,0.0,0.0,0.0,0.0,0.0,0.0,0.0,0.0,0.0,0.0,0.0,0.0,0.0,0.0,0.0,0.0,0.0,0.0,0.0,0.0
0.27916134737213555,0.34023026812191354,0.3971848278713682,0.4428848199407157,0.47045152902717813,0.474265440711996,0.45028512264324466,0.39860545279967524,0.32239562709074104,0.22801095583013262,0.12419385145668098,0.020164693343852323,-0.07378836989370477,-0.14928679200179878,-0.20069187711674705,-0.22587773779863404,-0.22711465065598174,-0.20830395111810587,-0.17562100558349605,-0.13580342774005824,-0.0949419726335602,-0.05828607269693952,-0.02759182522555384,-0.002863216969784501,0.017532490437494216,0.035993792531513615,0.054075899614214704,0.07392883429009643,0.09627143289798619,0.12082266460171195,0.14655706182533917,0.1714687346894187,0.1950233314834851,0.21686092118656253,0.2372946788533623,0.25712033111916466,0.2766582917316824,0.29726408595912746,0.3194876897962719,0.34333359691521026,0.3682566475896491,0.39275825209747206,0.41639311942079726,0.4386449918570153,0.459488931459572,0.4793929640601335,0.49863509500622843,0.5185998532741078,0.5401660171524956,0.5637334760987143,0.5890146537990327,0.6144376344393807,0.6392259564504378,0.6620539075944063,0.6819575503628356,0.6986363435379319,0.7118933082429705,0.7236427382392888,0.7353902207083279,0.7484209977407705,0.7633481821570286,0.7793552988533216,0.7956307093327413,0.8104017253222451,0.821736178082499,0.8280600207761253,0.8283026494357008,0.8228538664869346,0.8131587607139147,0.8013107024890791,0.7894272409469996,0.7787068927042528,0.7700146322120939,0.7631602688265988,0.0,0.0,0.0,0.0,0.0,0.0,0.0,0.0,0.0,0.0,0.0,0.0,0.0,0.0,0.0,0.0,0.0,0.0,0.0,0.0,0.0,0.0,0.0,0.0,0.0,0.0,0.0,0.0,0.0,0.0,0.0,0.0,0.0,0.0,0.0,0.0,0.0,0.0,0.0,0.0,0.0,0.0,0.0,0.0,0.0,0.0,0.0,0.0,0.0,0.0,0.0,0.0,0.0,0.0,0.0,0.0,0.0,0.0,0.0,0.0,0.0,0.0,0.0,0.0,0.0,0.0,0.0,0.0,0.0,0.0,0.0,0.0,0.0,0.0,0.0,0.0,0.0,0.0,0.0,0.0,0.0,0.0,0.0,0.0,0.0,0.0,0.0,0.0,0.0,0.0,0.0,0.0,0.0,0.0,0.0,0.0,0.0,0.0,0.0,0.0,0.0,0.0,0.0,0.0,0.0,0.0,0.0,0.0,0.0,0.0,0.0,0.0,0.0,0.0,0.0,0.0,0.0,0.0,0.0,0.0,0.0,0.0,0.0,0.0,0.0,0.0,0.0,0.0,0.0,0.0,0.0,0.0,0.0,0.0,0.0,0.0,0.0,0.0,0.0,0.0,0.0,0.0,0.0,0.0,0.0,0.0,0.0,0.0,0.0,0.0,0.0,0.0,0.0,0.0,0.0,0.0,0.0,0.0,0.0,0.0,0.0,0.0,0.0,0.0,0.0,0.0,0.0,0.0,0.0,0.0,0.0,0.0,0.0,0.0,0.0,0.0,0.0,0.0,0.0,0.0,0.0,0.0,0.0,0.0,0.0,0.0,0.0,0.0,0.0,0.0,0.0,0.0,0.0,0.0,0.0,0.0,0.0,0.0,0.0,0.0,0.0,0.0,0.0,0.0,0.0,0.0,0.0,0.0,0.0,0.0,0.0,0.0,0.0,0.0,0.0,0.0,0.0,0.0,0.0,0.0,0.0,0.0,0.0,0.0,0.0,0.0
0.6144376344393807,0.6392259564504378,0.6620539075944063,0.6819575503628356,0.6986363435379319,0.7118933082429705,0.7236427382392888,0.7353902207083279,0.7484209977407705,0.7633481821570286,0.7793552988533216,0.7956307093327413,0.8104017253222451,0.821736178082499,0.8280600207761253,0.8283026494357008,0.8228538664869346,0.8131587607139147,0.8013107024890791,0.7894272409469996,0.7787068927042528,0.7700146322120939,0.7631602688265988,0.7572011659112287,0.7507944611178741,0.7422284417616108,0.7310112773348512,0.7171335234108861,0.7012804058556315,0.6845782813910042,0.6678046512921677,0.6523856930710994,0.638987713453476,0.627756412556385,0.6183621016641344,0.6096960702081423,0.6015525399504457,0.5934218050029004,0.5850260241826892,0.5763375301859058,0.567032200783364,0.5579576934579492,0.5494079559776792,0.5415356886190441,0.5343129587076773,0.5270382528987875,0.5200782211847714,0.513138313771729,0.505953739840145,0.4983943278431578,0.49000136544844913,0.4817942413786239,0.4741976202056285,0.46763851528165573,0.4624756969786383,0.45837348453872745,0.4561539188646342,0.45554432499214104,0.4559958283139318,0.4568341145706791,0.4568523338915977,0.4564613469513419,0.4553990130075296,0.45359383546919785,0.45119253216271976,0.4479205296891393,0.44508998992077253,0.4429581915466618,0.4415330975879047,0.4406081718776494,0.4392648399284523,0.4379729088527939,0.43627366789811506,0.4337220933105437,0.0,0.0,0.0,0.0,0.0,0.0,0.0,0.0,0.0,0.0,0.0,0.0,0.0,0.0,0.0,0.0,0.0,0.0,0.0,0.0,0.0,0.0,0.0,0.0,0.0,0.0,0.0,0.0,0.0,0.0,0.0,0.0,0.0,0.0,0.0,0.0,0.0,0.0,0.0,0.0,0.0,0.0,0.0,0.0,0.0,0.0,0.0,0.0,0.0,0.0,0.0,0.0,0.0,0.0,0.0,0.0,0.0,0.0,0.0,0.0,0.0,0.0,0.0,0.0,0.0,0.0,0.0,0.0,0.0,0.0,0.0,0.0,0.0,0.0,0.0,0.0,0.0,0.0,0.0,0.0,0.0,0.0,0.0,0.0,0.0,0.0,0.0,0.0,0.0,0.0,0.0,0.0,0.0,0.0,0.0,0.0,0.0,0.0,0.0,0.0,0.0,0.0,0.0,0.0,0.0,0.0,0.0,0.0,0.0,0.0,0.0,0.0,0.0,0.0,0.0,0.0,0.0,0.0,0.0,0.0,0.0,0.0,0.0,0.0,0.0,0.0,0.0,0.0,0.0,0.0,0.0,0.0,0.0,0.0,0.0,0.0,0.0,0.0,0.0,0.0,0.0,0.0,0.0,0.0,0.0,0.0,0.0,0.0,0.0,0.0,0.0,0.0,0.0,0.0,0.0,0.0,0.0,0.0,0.0,0.0,0.0,0.0,0.0,0.0,0.0,0.0,0.0,0.0,0.0,0.0,0.0,0.0,0.0,0.0,0.0,0.0,0.0,0.0,0.0,0.0,0.0,0.0,0.0,0.0,0.0,0.0,0.0,0.0,0.0,0.0,0.0,0.0,0.0,0.0,0.0,0.0,0.0,0.0,0.0,0.0,0.0,0.0,0.0,0.0,0.0,0.0,0.0,0.0,0.0,0.0,0.0,0.0,0.0,0.0,0.0,0.0,0.0,0.0,0.0,0.0,0.0,0.0,0.0,0.0,0.0,0.0
0.2805717259239797,0.2883862627434883,0.28029784533941426,0.2520283216244275,0.20257443433653793,0.1331195948700479,0.04772960277738872,-0.04695354589412538,-0.143203490918115,-0.23133335706760652,-0.30290098204756327,-0.35158016797212654,-0.37420493712766506,-0.37195133025356775,-0.3478805674711857,-0.3079451849286335,-0.2592139440389199,-0.20852912225348286,-0.16204180073720623,-0.12239084797069476,-0.09032268894812362,-0.06460731878018157,-0.04285330737930064,-0.023098349791028774,-0.002635157917411567,0.01980948865173323,0.044404402776194805,0.07039795116247562,0.0959488905890032,0.12039244965324013,0.14308223691073146,0.16399453400183112,0.18364920970425186,0.20234193339486137,0.22140308427458955,0.2414905224493167,0.26280129162222027,0.2850291870724134,0.30701773678928623,0.3284460986552839,0.3488204633641262,0.36803206168574426,0.386409164440575,0.40419296139385097,0.42261820428484875,0.4424731583579356,0.46412996560065145,0.4873468432348191,0.5107852451207103,0.5336559493922889,0.5547160486424081,0.5730349392517129,0.5882845220290631,0.6003440977433339,0.6107993546808745,0.6210788710351688,0.6324524028532569,0.645576937151979,0.659862108727425,0.6744101304992096,0.6875767196016542,0.6975568603480127,0.7028693522748949,0.702600939369399,0.6969487167008142,0.687304470859863,0.6756980592513466,0.664175178996647,0.6539299877937248,0.6456011588435706,0.6388789416204531,0.6326776323503768,0.6254810057183989,0.6154302928684625,0.0,0.0,0.0,0.0,0.0,0.0,0.0,0.0,0.0,0.0,0.0,0.0,0.0,0.0,0.0,0.0,0.0,0.0,0.0,0.0,0.0,0.0,0.0,0.0,0.0,0.0,0.0,0.0,0.0,0.0,0.0,0.0,0.0,0.0,0.0,0.0,0.0,0.0,0.0,0.0,0.0,0.0,0.0,0.0,0.0,0.0,0.0,0.0,0.0,0.0,0.0,0.0,0.0,0.0,0.0,0.0,0.0,0.0,0.0,0.0,0.0,0.0,0.0,0.0,0.0,0.0,0.0,0.0,0.0,0.0,0.0,0.0,0.0,0.0,0.0,0.0,0.0,0.0,0.0,0.0,0.0,0.0,0.0,0.0,0.0,0.0,0.0,0.0,0.0,0.0,0.0,0.0,0.0,0.0,0.0,0.0,0.0,0.0,0.0,0.0,0.0,0.0,0.0,0.0,0.0,0.0,0.0,0.0,0.0,0.0,0.0,0.0,0.0,0.0,0.0,0.0,0.0,0.0,0.0,0.0,0.0,0.0,0.0,0.0,0.0,0.0,0.0,0.0,0.0,0.0,0.0,0.0,0.0,0.0,0.0,0.0,0.0,0.0,0.0,0.0,0.0,0.0,0.0,0.0,0.0,0.0,0.0,0.0,0.0,0.0,0.0,0.0,0.0,0.0,0.0,0.0,0.0,0.0,0.0,0.0,0.0,0.0,0.0,0.0,0.0,0.0,0.0,0.0,0.0,0.0,0.0,0.0,0.0,0.0,0.0,0.0,0.0,0.0,0.0,0.0,0.0,0.0,0.0,0.0,0.0,0.0,0.0,0.0,0.0,0.0,0.0,0.0,0.0,0.0,0.0,0.0,0.0,0.0,0.0,0.0,0.0,0.0,0.0,0.0,0.0,0.0,0.0,0.0,0.0,0.0,0.0,0.0,0.0,0.0,0.0,0.0,0.0,0.0,0.0,0.0,0.0,0.0,0.0,0.0,0.0,0.0
0.5730349392517129,0.5882845220290631,0.6003440977433339,0.6107993546808745,0.6210788710351688,0.6324524028532569,0.645576937151979,0.659862108727425,0.6744101304992096,0.6875767196016542,0.6975568603480127,0.7028693522748949,0.702600939369399,0.6969487167008142,0.687304470859863,0.6756980592513466,0.664175178996647,0.6539299877937248,0.6456011588435706,0.6388789416204531,0.6326776323503768,0.6254810057183989,0.6154302928684625,0.6018062085745561,0.584552554937925,0.5644659250966463,0.5429603291710804,0.5212624596971872,0.5012826943898929,0.4842288251540402,0.4706642701802404,0.46043965262376196,0.45231052763488766,0.44567811791627904,0.4395373920635865,0.43311683042055177,0.42603453141432845,0.4178128485684333,0.40948171566174957,0.40183390564724103,0.3956804599154371,0.39162941020489495,0.38935216310309484,0.3893567508063448,0.3912027088482146,0.39419010161749546,0.39753638111894374,0.3999442282093433,0.40172450606134025,0.4027903872543812,0.403275058656286,0.4034433520329925,0.40292575914154255,0.4027577433415049,0.40303029710668464,0.40363675696482576,0.4043586578354988,0.4043096808723881,0.40426427088510136,0.40429356263993815,0.404556219340008,0.40527396363800516,0.4059795328303869,0.4077525673020974,0.41060996464165106,0.41432985782413984,0.41851859796574076,0.42203537873211705,0.4253525504742621,0.42818082243141814,0.43033165847266813,0.43176323229347635,0.4319199855821873,0.4318884252228763,0.0,0.0,0.0,0.0,0.0,0.0,0.0,0.0,0.0,0.0,0.0,0.0,0.0,0.0,0.0,0.0,0.0,0.0,0.0,0.0,0.0,0.0,0.0,0.0,0.0,0.0,0.0,0.0,0.0,0.0,0.0,0.0,0.0,0.0,0.0,0.0,0.0,0.0,0.0,0.0,0.0,0.0,0.0,0.0,0.0,0.0,0.0,0.0,0.0,0.0,0.0,0.0,0.0,0.0,0.0,0.0,0.0,0.0,0.0,0.0,0.0,0.0,0.0,0.0,0.0,0.0,0.0,0.0,0.0,0.0,0.0,0.0,0.0,0.0,0.0,0.0,0.0,0.0,0.0,0.0,0.0,0.0,0.0,0.0,0.0,0.0,0.0,0.0,0.0,0.0,0.0,0.0,0.0,0.0,0.0,0.0,0.0,0.0,0.0,0.0,0.0,0.0,0.0,0.0,0.0,0.0,0.0,0.0,0.0,0.0,0.0,0.0,0.0,0.0,0.0,0.0,0.0,0.0,0.0,0.0,0.0,0.0,0.0,0.0,0.0,0.0,0.0,0.0,0.0,0.0,0.0,0.0,0.0,0.0,0.0,0.0,0.0,0.0,0.0,0.0,0.0,0.0,0.0,0.0,0.0,0.0,0.0,0.0,0.0,0.0,0.0,0.0,0.0,0.0,0.0,0.0,0.0,0.0,0.0,0.0,0.0,0.0,0.0,0.0,0.0,0.0,0.0,0.0,0.0,0.0,0.0,0.0,0.0,0.0,0.0,0.0,0.0,0.0,0.0,0.0,0.0,0.0,0.0,0.0,0.0,0.0,0.0,0.0,0.0,0.0,0.0,0.0,0.0,0.0,0.0,0.0,0.0,0.0,0.0,0.0,0.0,0.0,0.0,0.0,0.0,0.0,0.0,0.0,0.0,0.0,0.0,0.0,0.0,0.0,0.0,0.0,0.0,0.0,0.0,0.0,0.0,0.0,0.0,0.0,0.0,0.0
0.2968248405331346,0.2834956266725192,0.2715214018991868,0.26107419456120806,0.2523316259000909,0.2451525490430227,0.24054479447443153,0.23895290280191378,0.24055254460127803,0.24497863983372756,0.2505506255792069,0.2558223534198299,0.25785186112672465,0.253033848992214,0.23762565376736428,0.2078516415234938,0.1626103362770942,0.10218429976344043,0.02918269831259365,-0.051536044565728835,-0.13407889551025357,-0.210360324773039,-0.27335947249782144,-0.317719909241332,-0.34069774289882193,-0.3433300883617603,-0.32796146327127856,-0.2996504188466188,-0.2644001138517096,-0.2279335120243066,-0.19534386539638135,-0.1682973143124242,-0.1470093894781937,-0.1300607245953956,-0.11516928114979125,-0.1007001735917653,-0.08430608683975799,-0.06526611179420268,-0.043913036635457876,-0.02134009664344234,0.0004941329928152345,0.021062931055881473,0.039804783298581295,0.056768200244922115,0.07248908786290656,0.08723098365153095,0.10227531514293325,0.1180633438904535,0.1346118394696726,0.15158340765077122,0.16807379886148155,0.18415348940955298,0.19972499194789942,0.2150416712333495,0.23067772743863585,0.24705870954962628,0.265241648657221,0.2856081041370278,0.3080207421155087,0.33178734971646867,0.3554906858011771,0.3782340967819385,0.3989704357576633,0.41714527318974,0.4328969719943015,0.44676943995507407,0.4604150483789629,0.475216788408696,0.49213025684417533,0.5113008943962499,0.5317641710760571,0.551884367755981,0.5695265542565303,0.5826212728702136,0.0,0.0,0.0,0.0,0.0,0.0,0.0,0.0,0.0,0.0,0.0,0.0,0.0,0.0,0.0,0.0,0.0,0.0,0.0,0.0,0.0,0.0,0.0,0.0,0.0,0.0,0.0,0.0,0.0,0.0,0.0,0.0,0.0,0.0,0.0,0.0,0.0,0.0,0.0,0.0,0.0,0.0,0.0,0.0,0.0,0.0,0.0,0.0,0.0,0.0,0.0,0.0,0.0,0.0,0.0,0.0,0.0,0.0,0.0,0.0,0.0,0.0,0.0,0.0,0.0,0.0,0.0,0.0,0.0,0.0,0.0,0.0,0.0,0.0,0.0,0.0,0.0,0.0,0.0,0.0,0.0,0.0,0.0,0.0,0.0,0.0,0.0,0.0,0.0,0.0,0.0,0.0,0.0,0.0,0.0,0.0,0.0,0.0,0.0,0.0,0.0,0.0,0.0,0.0,0.0,0.0,0.0,0.0,0.0,0.0,0.0,0.0,0.0,0.0,0.0,0.0,0.0,0.0,0.0,0.0,0.0,0.0,0.0,0.0,0.0,0.0,0.0,0.0,0.0,0.0,0.0,0.0,0.0,0.0,0.0,0.0,0.0,0.0,0.0,0.0,0.0,0.0,0.0,0.0,0.0,0.0,0.0,0.0,0.0,0.0,0.0,0.0,0.0,0.0,0.0,0.0,0.0,0.0,0.0,0.0,0.0,0.0,0.0,0.0,0.0,0.0,0.0,0.0,0.0,0.0,0.0,0.0,0.0,0.0,0.0,0.0,0.0,0.0,0.0,0.0,0.0,0.0,0.0,0.0,0.0,0.0,0.0,0.0,0.0,0.0,0.0,0.0,0.0,0.0,0.0,0.0,0.0,0.0,0.0,0.0,0.0,0.0,0.0,0.0,0.0,0.0,0.0,0.0,0.0,0.0,0.0,0.0,0.0,0.0,0.0,0.0,0.0,0.0,0.0,0.0,0.0,0.0,0.0,0.0,0.0,0.0
