0.15496713664708872,0.25411859051107466,0.3539045263081504,0.44578147167469284,0.5216536566999385,0.5754673442655931,0.604063839467612,0.606814413482251,0.5875372446370016,0.5519950720458416,0.5072323598900939,0.46025535033421333,0.4160764289622025,0.3791171130060502,0.35094580854635854,0.330871870831056,0.31644686120081467,0.3034877833768614,0.28941025787961583,0.27207409315931613,0.25081222558160854,0.2264840689303453,0.2006112853860557,0.17633462729294777,0.1564074607307924,0.14285840776027406,0.13652127665987593,0.1366382838266414,0.1418143869859561,0.1499101028395222,0.15876614100143707,0.16673582852977167,0.17291740602921213,0.17764630748873944,0.1821002790670563,0.18797013744357702,0.19695038039966742,0.21023176839537247,0.22814378120190026,0.25011506666996747,0.27476213645400116,0.3002458082290085,0.32479373971567915,0.34711543203636025,0.36696014467835164,0.3851795715786067,0.4035412360583496,0.42431070530006926,0.4494040639647887,0.4799905744552179,0.5159199152055767,0.5555702176099443,0.5959550185871302,0.6339220682842905,0.6662982783649282,0.6909927292330967,0.707599199161539,0.7171771705608581,0.7231933964174756,0.7290186749579358,0.7375059219826451,0.7500789129584451,0.7658641410623384,0.7826354450004196,0.7960051252607894,0.8008515788654705,0.7925586267553512,0.7679747661315331,0.7269198129352805,0.6714932568052194,0.6060068600693841,0.5361239905350211,0.46753635742216443,0.405490940983979,0.35318265647286373,0.3116079290285282,0.27968935431469083,0.25465984626720223,0.23347574066891297,0.21309542618603314,0.19137694799421304,0.1674773331844456,0.1416551696841865,0.11567416456442317,0.09151986169224197,0.07100859323429756,0.055265312054200336,0.044166319595876656,0.03719986924296884,0.03287211554798827,0.029442385458927363,0.0254342846974188,0.019811617899237063,0.012981671084080056,0.005782102857210377,-0.0004746333760469836,-0.004396742659362731,-0.00512234363166633,-0.001863284154153121,0.004959762442230287,0.014224404492526722,0.024441139770421318,0.0338929131581099,0.04196203299127424,0.047953370298202125,0.05165382516584658,0.053279022200205355,0.05300296517224586,0.05198850711589901,0.05052843787276544,0.04868043399144599,0.04642189350896743,0.04352038818417146,0.04093127820772138,0.03905879576216872,0.03841224875550596,0.039564764817729484,0.04271366999876276,0.04881631842932449,0.057606865444914966,0.06831088021430808,0.07983941583833493,0.09054075524056879,0.10020383993600958,0.108328798773479,0.11484776639153771,0.12011406685894037,0.0,0.0,0.0,0.0,0.0,0.0,0.0,0.0,0.0,0.0,0.0,0.0,0.0,0.0,0.0,0.0,0.0,0.0,0.0,0.0,0.0,0.0,0.0,0.0,0.0,0.0,0.0,0.0,0.0,0.0,0.0,0.0,0.0,0.0,0.0,0.0,0.0,0.0,0.0,0.0,0.0,0.0,0.0,0.0,0.0,0.0,0.0,0.0,0.0,0.0,0.0,0.0,0.0,0.0,0.0,0.0,0.0,0.0,0.0,0.0,0.0,0.0,0.0,0.0,0.0,0.0,0.0,0.0,0.0,0.0,0.0,0.0,0.0,0.0,0.0,0.0,0.0,0.0,0.0,0.0,0.0,0.0,0.0,0.0,0.0,0.0,0.0,0.0,0.0,0.0,0.0,0.0,0.0,0.0,0.0,0.0,0.0,0.0,0.0,0.0,0.0,0.0,0.0,0.0,0.0,0.0,0.0,0.0,0.0,0.0,0.0,0.0,0.0,0.0,0.0,0.0,0.0,0.0,0.0,0.0,0.0,0.0,0.0,0.0,0.0,0.0,0.0,0.0,0.0,0.0,0.0,0.0,0.0,0.0,0.0,0.0,0.0,0.0,0.0,0.0,0.0,0.0,0.0,0.0,0.0,0.0,0.0,0.0,0.0,0.0,0.0,0.0,0.0,0.0,0.0,0.0,0.0,0.0,0.0,0.0,0.0,0.0,0.0,0.0,0.0,0.0,0.0,0.0,0.0,0.0,0.0,0.0,0.0
0.19137694799421304,0.1674773331844456,0.1416551696841865,0.11567416456442317,0.09151986169224197,0.07100859323429756,0.055265312054200336,0.044166319595876656,0.03719986924296884,0.03287211554798827,0.029442385458927363,0.0254342846974188,0.019811617899237063,0.012981671084080056,0.005782102857210377,-0.0004746333760469836,-0.004396742659362731,-0.00512234363166633,-0.001863284154153121,0.004959762442230287,0.014224404492526722,0.024441139770421318,0.0338929131581099,0.04196203299127424,0.047953370298202125,0.05165382516584658,0.053279022200205355,0.05300296517224586,0.05198850711589901,0.05052843787276544,0.04868043399144599,0.04642189350896743,0.04352038818417146,0.04093127820772138,0.03905879576216872,0.03841224875550596,0.039564764817729484,0.04271366999876276,0.04881631842932449,0.057606865444914966,0.06831088021430808,0.07983941583833493,0.09054075524056879,0.10020383993600958,0.108328798773479,0.11484776639153771,0.12011406685894037,0.12407969729708705,0.1282939377212582,0.13368417961606593,0.14085402090739205,0.14984414158243117,0.1595333231395344,0.16907545544455135,0.1767989842825578,0.18085537623896047,0.179574216305922,0.17160515664237572,0.15686042180784515,0.13608568020441822,0.11094189390873478,0.08372833647877206,0.05678368643859789,0.03253816524059446,0.012657265127255122,-0.0021318941142038036,-0.01211754334837786,-0.018577935861062937,-0.02302202163674834,-0.02702590500711405,-0.031736926713395,-0.037606078310323365,-0.04452916943272077,-0.051482493852861855,-0.05735192108748341,-0.061283409155520774,-0.06309461327226887,-0.06371404207339328,-0.06437188534202512,-0.06680499632518484,-0.07249096999546252,-0.08199026439559234,-0.09471326862223658,-0.10773215450621695,-0.11669144418524557,-0.11621565489807734,-0.10088591551891576,-0.06676722709064768,-0.011329441762305034,0.06486887243943411,0.15810077850687512,0.26170133005389123,0.3663261489950419,0.46277032526558615,0.5420947449037873,0.5972955272809757,0.6242885756266983,0.6217365085326476,0.5930427033998593,0.5440756528161549,0.48255606826258296,0.41672531660682405,0.35325203263867266,0.29851756470322277,0.2560200901722194,0.2266962714350582,0.2091620575869497,0.19947549334186357,0.1946732567078193,0.1914718721676907,0.1875502967358251,0.18187077918071506,0.1739907198886603,0.16563499069694151,0.15860626907543798,0.15458005662954086,0.15457950077448043,0.15828308820870823,0.16523130309763537,0.17420691515177575,0.18384431093580023,0.19301528298635012,0.2008960644602573,0.20772874990666362,0.2143075017859213,0.22181588425276735,0.23145106519821979,0.0,0.0,0.0,0.0,0.0,0.0,0.0,0.0,0.0,0.0,0.0,0.0,0.0,0.0,0.0,0.0,0.0,0.0,0.0,0.0,0.0,0.0,0.0,0.0,0.0,0.0,0.0,0.0,0.0,0.0,0.0,0.0,0.0,0.0,0.0,0.0,0.0,0.0,0.0,0.0,0.0,0.0,0.0,0.0,0.0,0.0,0.0,0.0,0.0,0.0,0.0,0.0,0.0,0.0,0.0,0.0,0.0,0.0,0.0,0.0,0.0,0.0,0.0,0.0,0.0,0.0,0.0,0.0,0.0,0.0,0.0,0.0,0.0,0.0,0.0,0.0,0.0,0.0,0.0,0.0,0.0,0.0,0.0,0.0,0.0,0.0,0.0,0.0,0.0,0.0,0.0,0.0,0.0,0.0,0.0,0.0,0.0,0.0,0.0,0.0,0.0,0.0,0.0,0.0,0.0,0.0,0.0,0.0,0.0,0.0,0.0,0.0,0.0,0.0,0.0,0.0,0.0,0.0,0.0,0.0,0.0,0.0,0.0,0.0,0.0,0.0,0.0,0.0,0.0,0.0,0.0,0.0,0.0,0.0,0.0,0.0,0.0,0.0,0.0,0.0,0.0,0.0,0.0,0.0,0.0,0.0,0.0,0.0,0.0,0.0,0.0,0.0,0.0,0.0,0.0,0.0,0.0,0.0,0.0,0.0,0.0,0.0,0.0,0.0,0.0,0.0,0.0,0.0,0.0,0.0,0.0,0.0,0.0
0.5972955272809757,0.6242885756266983,0.6217365085326476,0.5930427033998593,0.5440756528161549,0.48255606826258296,0.41672531660682405,0.35325203263867266,0.29851756470322277,0.2560200901722194,0.2266962714350582,0.2091620575869497,0.19947549334186357,0.1946732567078193,0.1914718721676907,0.1875502967358251,0.18187077918071506,0.1739907198886603,0.16563499069694151,0.15860626907543798,0.15458005662954086,0.15457950077448043,0.15828308820870823,0.16523130309763537,0.17420691515177575,0.18384431093580023,0.19301528298635012,0.2008960644602573,0.20772874990666362,0.2143075017859213,0.22181588425276735,0.23145106519821979,0.24401317536805803,0.25972319416787265,0.27814373871426085,0.2982678114689771,0.3187959211254917,0.33850094875168385,0.35662703735120665,0.3732391019095288,0.3892339965266527,0.40614077705276364,0.42571102953802814,0.4493396361920903,0.4777175035424585,0.5104325423980297,0.5459226486762727,0.5815762229605329,0.6150156820880015,0.6440145219403441,0.6674498555111402,0.6857045202997817,0.7002360554708249,0.7145169105065989,0.731404289396387,0.7528329399030406,0.7790769618115732,0.8080976180702844,0.8367523715706567,0.8602086689462255,0.8734440843982988,0.8724494033233646,0.8550337562067875,0.8220152862565194,0.7763971379517047,0.7229388015472068,0.6670843003589069,0.6135798402333247,0.5660662566340174,0.5258136494877296,0.49190133958346594,0.46171919739444905,0.43167498541018967,0.3987731876766179,0.3609048168752409,0.31760562166797274,0.2701822031559834,0.22120436931821613,0.17448729860939158,0.13357047683160694,0.10117256469907292,0.07864520891751771,0.06555326091463264,0.06054345962400142,0.06100770731480325,0.06399941939153819,0.06690984299843027,0.0676945548253389,0.06615045806946987,0.06273117691716247,0.05860155925767748,0.05517447707934281,0.05324199630742474,0.053946599453170485,0.057183758192903035,0.062187683613517945,0.06783536901907335,0.07254005500461454,0.0762164442329825,0.07859670164025012,0.07985747503919204,0.08049626095880388,0.08054672920598221,0.08132306468826242,0.08301749830794344,0.08545490116031496,0.0882321654411129,0.0903742955199574,0.09238485015298471,0.09403701762183374,0.09522038659560103,0.09596806992342188,0.09593703429177666,0.09616019077113012,0.09664725567486047,0.09725535349490097,0.0978144839305743,0.09787483962244027,0.09810679628120732,0.0985173593812309,0.09906263946357824,0.09966089793772673,0.09996839828808748,0.10028135425032293,0.10037894778960428,0.10003387224560628,0.09913892270767043,0.0,0.0,0.0,0.0,0.0,0.0,0.0,0.0,0.0,0.0,0.0,0.0,0.0,0.0,0.0,0.0,0.0,0.0,0.0,0.0,0.0,0.0,0.0,0.0,0.0,0.0,0.0,0.0,0.0,0.0,0.0,0.0,0.0,0.0,0.0,0.0,0.0,0.0,0.0,0.0,0.0,0.0,0.0,0.0,0.0,0.0,0.0,0.0,0.0,0.0,0.0,0.0,0.0,0.0,0.0,0.0,0.0,0.0,0.0,0.0,0.0,0.0,0.0,0.0,0.0,0.0,0.0,0.0,0.0,0.0,0.0,0.0,0.0,0.0,0.0,0.0,0.0,0.0,0.0,0.0,0.0,0.0,0.0,0.0,0.0,0.0,0.0,0.0,0.0,0.0,0.0,0.0,0.0,0.0,0.0,0.0,0.0,0.0,0.0,0.0,0.0,0.0,0.0,0.0,0.0,0.0,0.0,0.0,0.0,0.0,0.0,0.0,0.0,0.0,0.0,0.0,0.0,0.0,0.0,0.0,0.0,0.0,0.0,0.0,0.0,0.0,0.0,0.0,0.0,0.0,0.0,0.0,0.0,0.0,0.0,0.0,0.0,0.0,0.0,0.0,0.0,0.0,0.0,0.0,0.0,0.0,0.0,0.0,0.0,0.0,0.0,0.0,0.0,0.0,0.0,0.0,0.0,0.0,0.0,0.0,0.0,0.0,0.0,0.0,0.0,0.0,0.0,0.0,0.0,0.0,0.0,0.0,0.0
0.33905973299031494,0.32466730478234473,0.3087429101694011,0.2935287326735424,0.2816688751548608,0.27456262828357575,0.2726873571372275,0.2756601181707505,0.28217737977319274,0.2910583245618812,0.3009453556020816,0.31074223506542886,0.31979750445978183,0.32783163230255613,0.3353596008336212,0.3432086786758212,0.35240748577270065,0.36393489074881313,0.3784216732534648,0.39609735651868805,0.416593121042632,0.4390011914088527,0.4620595835078858,0.48440040168062265,0.5051399257494915,0.5240712567347399,0.5418992118219478,0.5601842762669584,0.5809180771358508,0.6062211313675797,0.6374582638781615,0.6747095913322083,0.7164581850565431,0.7596278395062702,0.8002975627062064,0.8344761518224039,0.8590821387171907,0.8727320938461279,0.8760742670898822,0.8716911593206922,0.8634087381978358,0.8551739312487969,0.8498811858849089,0.848307235532133,0.8492307711851362,0.8491629095734027,0.8433597963349136,0.8270302779236899,0.7963215952273848,0.7502214107422979,0.6899285343591288,0.6190725228490124,0.5430205888202393,0.4675608707515622,0.3985706342320346,0.34001133417894447,0.2936565779732661,0.25901089971678887,0.23349501816712637,0.21398994590438425,0.19686665803683545,0.17916210108058492,0.1592135055847494,0.13666275147853169,0.11318122805729618,0.09096035052189119,0.07239273378970978,0.059416111452709926,0.05273557034723341,0.05257482707739548,0.05761954488840247,0.06578509736775132,0.07477123916376918,0.082249181214123,0.08753762419257453,0.09027833472107565,0.09085360685296594,0.09012636687482843,0.08863170835439252,0.08781784014964564,0.08802508880271667,0.08909200486327563,0.09053457222814183,0.09129868773364724,0.09177994656058802,0.09180973478554674,0.09144484768618275,0.09094277758145523,0.09010199509004126,0.09012743159415101,0.09104186009575149,0.09257967324918494,0.09433724885634694,0.09544514045689956,0.09650607936990105,0.09732100405183693,0.0977454219092882,0.09773172013123863,0.09689599135841657,0.09612441506340423,0.09538658143140546,0.09455581906302027,0.09352826599150184,0.09204666353202108,0.09076173629018255,0.08981788108150784,0.08931971201480104,0.08932481185176504,0.08972756452816523,0.09067538282861214,0.09196612847396822,0.09332440731833873,0.09449489656874792,0.09526818683910403,0.09583850077901135,0.09645045816770986,0.09753648056423606,0.09966498128573081,0.10339427559799963,0.10926149096598545,0.1174561114522529,0.12776087984159343,0.13951069928784515,0.1518223231931124,0.16326398343085008,0.17238478096608448,0.17797393558129831,0.0,0.0,0.0,0.0,0.0,0.0,0.0,0.0,0.0,0.0,0.0,0.0,0.0,0.0,0.0,0.0,0.0,0.0,0.0,0.0,0.0,0.0,0.0,0.0,0.0,0.0,0.0,0.0,0.0,0.0,0.0,0.0,0.0,0.0,0.0,0.0,0.0,0.0,0.0,0.0,0.0,0.0,0.0,0.0,0.0,0.0,0.0,0.0,0.0,0.0,0.0,0.0,0.0,0.0,0.0,0.0,0.0,0.0,0.0,0.0,0.0,0.0,0.0,0.0,0.0,0.0,0.0,0.0,0.0,0.0,0.0,0.0,0.0,0.0,0.0,0.0,0.0,0.0,0.0,0.0,0.0,0.0,0.0,0.0,0.0,0.0,0.0,0.0,0.0,0.0,0.0,0.0,0.0,0.0,0.0,0.0,0.0,0.0,0.0,0.0,0.0,0.0,0.0,0.0,0.0,0.0,0.0,0.0,0.0,0.0,0.0,0.0,0.0,0.0,0.0,0.0,0.0,0.0,0.0,0.0,0.0,0.0,0.0,0.0,0.0,0.0,0.0,0.0,0.0,0.0,0.0,0.0,0.0,0.0,0.0,0.0,0.0,0.0,0.0,0.0,0.0,0.0,0.0,0.0,0.0,0.0,0.0,0.0,0.0,0.0,0.0,0.0,0.0,0.0,0.0,0.0,0.0,0.0,0.0,0.0,0.0,0.0,0.0,0.0,0.0,0.0,0.0,0.0,0.0,0.0,0.0,0.0,0.0
0.23349501816712637,0.21398994590438425,0.19686665803683545,0.17916210108058492,0.1592135055847494,0.13666275147853169,0.11318122805729618,0.09096035052189119,0.07239273378970978,0.059416111452709926,0.05273557034723341,0.05257482707739548,0.05761954488840247,0.06578509736775132,0.07477123916376918,0.082249181214123,0.08753762419257453,0.09027833472107565,0.09085360685296594,0.09012636687482843,0.08863170835439252,0.08781784014964564,0.08802508880271667,0.08909200486327563,0.09053457222814183,0.09129868773364724,0.09177994656058802,0.09180973478554674,0.09144484768618275,0.09094277758145523,0.09010199509004126,0.09012743159415101,0.09104186009575149,0.09257967324918494,0.09433724885634694,0.09544514045689956,0.09650607936990105,0.09732100405183693,0.0977454219092882,0.09773172013123863,0.09689599135841657,0.09612441506340423,0.09538658143140546,0.09455581906302027,0.09352826599150184,0.09204666353202108,0.09076173629018255,0.08981788108150784,0.08931971201480104,0.08932481185176504,0.08972756452816523,0.09067538282861214,0.09196612847396822,0.09332440731833873,0.09449489656874792,0.09526818683910403,0.09583850077901135,0.09645045816770986,0.09753648056423606,0.09966498128573081,0.10339427559799963,0.10926149096598545,0.1174561114522529,0.12776087984159343,0.13951069928784515,0.1518223231931124,0.16326398343085008,0.17238478096608448,0.17797393558129831,0.1793564172899595,0.17695907877375167,0.1712023912137218,0.16307542008834006,0.15373906891755043,0.14428387113335794,0.13557608529018733,0.1280131899936851,0.12148045867969849,0.11546215369047672,0.10921132497675638,0.10167580824624504,0.09257873304255607,0.08179143016212143,0.06958568129224839,0.056563655648939656,0.04325308471272173,0.030734411639300952,0.01975158366778722,0.010774333777160137,0.003915986321122928,-0.001303355385237541,-0.005148451499630409,-0.008203783979358531,-0.011039599808357049,-0.014090617275868335,-0.017865836502075627,-0.02201967773133264,-0.02616436231596229,-0.029733223670975105,-0.03209722087285959,-0.03302583004935053,-0.031715031989809954,-0.02778092771040662,-0.021128234390556444,-0.012110239396812557,-0.0021576851524295125,0.007458425694360448,0.014410878007730242,0.015692564332300103,0.007876742079234481,-0.012936352899969144,-0.04870205879898319,-0.10004263549015169,-0.16524528035017955,-0.2399914780906997,-0.31825726476982324,-0.3909112072984698,-0.44865052336434064,-0.4830092966376622,-0.4878596982606338,-0.46141125553891243,-0.404232716402353,-0.32122633998544414,-0.22028324014902267,-0.11107069670719552,-0.004377017295649951,0.09163674947545267,0.0,0.0,0.0,0.0,0.0,0.0,0.0,0.0,0.0,0.0,0.0,0.0,0.0,0.0,0.0,0.0,0.0,0.0,0.0,0.0,0.0,0.0,0.0,0.0,0.0,0.0,0.0,0.0,0.0,0.0,0.0,0.0,0.0,0.0,0.0,0.0,0.0,0.0,0.0,0.0,0.0,0.0,0.0,0.0,0.0,0.0,0.0,0.0,0.0,0.0,0.0,0.0,0.0,0.0,0.0,0.0,0.0,0.0,0.0,0.0,0.0,0.0,0.0,0.0,0.0,0.0,0.0,0.0,0.0,0.0,0.0,0.0,0.0,0.0,0.0,0.0,0.0,0.0,0.0,0.0,0.0,0.0,0.0,0.0,0.0,0.0,0.0,0.0,0.0,0.0,0.0,0.0,0.0,0.0,0.0,0.0,0.0,0.0,0.0,0.0,0.0,0.0,0.0,0.0,0.0,0.0,0.0,0.0,0.0,0.0,0.0,0.0,0.0,0.0,0.0,0.0,0.0,0.0,0.0,0.0,0.0,0.0,0.0,0.0,0.0,0.0,0.0,0.0,0.0,0.0,0.0,0.0,0.0,0.0,0.0,0.0,0.0,0.0,0.0,0.0,0.0,0.0,0.0,0.0,0.0,0.0,0.0,0.0,0.0,0.0,0.0,0.0,0.0,0.0,0.0,0.0,0.0,0.0,0.0,0.0,0.0,0.0,0.0,0.0,0.0,0.0,0.0,0.0,0.0,0.0,0.0,0.0,0.0
-0.4878596982606338,-0.46141125553891243,-0.404232716402353,-0.32122633998544414,-0.22028324014902267,-0.11107069670719552,-0.004377017295649951,0.09163674947545267,0.1705625664153177,0.22882977775632773,0.2657183048462428,0.28221773434239167,0.28252994278888116,0.2714927829542565,0.2542319776871653,0.23543318219613243,0.21836638428787367,0.2059360765006053,0.19954657904069162,0.1994879889759365,0.2051480595460221,0.21512985484499908,0.22805150103123037,0.2424612253671524,0.25715798759068165,0.27133697158466125,0.28454671070915066,0.2970206984796646,0.30937889379363603,0.32254198775764226,0.3375258836233005,0.3551381399660739,0.3759083893301351,0.3998128786836768,0.42620788331272785,0.4539001474153629,0.48133430820969736,0.5071330645248814,0.5304147602944131,0.5511497108437896,0.5702744112074253,0.5894623414782919,0.6108075984030059,0.6360506293447055,0.6659519598350291,0.6998366057959116,0.7355776752313542,0.7696758306582276,0.7984898309518043,0.8189562915953719,0.8293988003843978,0.8301786268643738,0.8229419404108899,0.8111505180541874,0.7986642451670662,0.788559099814603,0.7821295096570509,0.7783941302897582,0.7743589433552756,0.765671587993526,0.7477193992448083,0.7166227691949119,0.6709533557624003,0.611437090350129,0.5412268023234947,0.4653524258974717,0.38956494009506276,0.319914367025968,0.26092788785609794,0.21516819086379174,0.18298545255013512,0.16253285727372985,0.15103275408098968,0.1448361051104733,0.14048858222481891,0.1353971576568826,0.1279258278513475,0.11835227019428292,0.10757488333173484,0.09695860919719515,0.08780886276363008,0.08058815523367069,0.07587747645416812,0.0731311642291793,0.07134670443612662,0.06945642539449723,0.06627775625131609,0.06222942628384986,0.05775856131315442,0.05372132547037494,0.0511039880253644,0.05018827300032308,0.05204050638114269,0.05644126745050935,0.06262284396163335,0.06952196607197687,0.07558956596473763,0.08079147335578325,0.08464488192213866,0.08698569244572982,0.08793994411858935,0.08734625665216454,0.08637522201790004,0.08519112679089433,0.08377978413278264,0.08209343531399647,0.07977117065481737,0.07779766579379963,0.0764176118458978,0.07584591612068381,0.07624692650940361,0.07732162726886288,0.07968557037386093,0.08296563301785603,0.08659827381256803,0.09003752070282753,0.09271416191211956,0.0950625704951634,0.09734841310954366,0.10006120726269274,0.10382811489625142,0.10916464291607839,0.11668741142572407,0.12646561060485104,0.13812308828215863,0.15087776313497595,0.1637005516303824,0.0,0.0,0.0,0.0,0.0,0.0,0.0,0.0,0.0,0.0,0.0,0.0,0.0,0.0,0.0,0.0,0.0,0.0,0.0,0.0,0.0,0.0,0.0,0.0,0.0,0.0,0.0,0.0,0.0,0.0,0.0,0.0,0.0,0.0,0.0,0.0,0.0,0.0,0.0,0.0,0.0,0.0,0.0,0.0,0.0,0.0,0.0,0.0,0.0,0.0,0.0,0.0,0.0,0.0,0.0,0.0,0.0,0.0,0.0,0.0,0.0,0.0,0.0,0.0,0.0,0.0,0.0,0.0,0.0,0.0,0.0,0.0,0.0,0.0,0.0,0.0,0.0,0.0,0.0,0.0,0.0,0.0,0.0,0.0,0.0,0.0,0.0,0.0,0.0,0.0,0.0,0.0,0.0,0.0,0.0,0.0,0.0,0.0,0.0,0.0,0.0,0.0,0.0,0.0,0.0,0.0,0.0,0.0,0.0,0.0,0.0,0.0,0.0,0.0,0.0,0.0,0.0,0.0,0.0,0.0,0.0,0.0,0.0,0.0,0.0,0.0,0.0,0.0,0.0,0.0,0.0,0.0,0.0,0.0,0.0,0.0,0.0,0.0,0.0,0.0,0.0,0.0,0.0,0.0,0.0,0.0,0.0,0.0,0.0,0.0,0.0,0.0,0.0,0.0,0.0,0.0,0.0,0.0,0.0,0.0,0.0,0.0,0.0,0.0,0.0,0.0,0.0,0.0,0.0,0.0,0.0,0.0,0.0
0.15103275408098968,0.1448361051104733,0.14048858222481891,0.1353971576568826,0.1279258278513475,0.11835227019428292,0.10757488333173484,0.09695860919719515,0.08780886276363008,0.08058815523367069,0.07587747645416812,0.0731311642291793,0.07134670443612662,0.06945642539449723,0.06627775625131609,0.06222942628384986,0.05775856131315442,0.05372132547037494,0.0511039880253644,0.05018827300032308,0.05204050638114269,0.05644126745050935,0.06262284396163335,0.06952196607197687,0.07558956596473763,0.08079147335578325,0.08464488192213866,0.08698569244572982,0.08793994411858935,0.08734625665216454,0.08637522201790004,0.08519112679089433,0.08377978413278264,0.08209343531399647,0.07977117065481737,0.07779766579379963,0.0764176118458978,0.07584591612068381,0.07624692650940361,0.07732162726886288,0.07968557037386093,0.08296563301785603,0.08659827381256803,0.09003752070282753,0.09271416191211956,0.0950625704951634,0.09734841310954366,0.10006120726269274,0.10382811489625142,0.10916464291607839,0.11668741142572407,0.12646561060485104,0.13812308828215863,0.15087776313497595,0.1637005516303824,0.17554767761735138,0.18546264170979895,0.19290588103317996,0.19792741137370043,0.20132101947449293,0.2040977879731333,0.20736378988099757,0.211957470292257,0.21816179367788507,0.22545635419005342,0.23281758328787056,0.23861274339759758,0.2410163199605392,0.2383961759820697,0.22936667876173344,0.21398710250217154,0.19307688292571729,0.16828747499124835,0.14178144680896898,0.11553317778530393,0.09175747738270668,0.07185333795945341,0.05640667775400497,0.04516671763586829,0.036952967007221206,0.0307022442474713,0.025137750420888064,0.019267203471734475,0.012581381917373244,0.004812284133448345,-0.0032293449090998513,-0.010640339232495619,-0.016474272989832953,-0.0200039538011218,-0.021253486600283557,-0.01996949978521918,-0.01646540707613363,-0.011273622741325916,-0.0050586477779280825,0.0009535837250543222,0.006376934971343387,0.010404686523994875,0.0120116110907398,0.009886658245265642,0.0019330440106760836,-0.01268577027517942,-0.034579319540761,-0.06331635116816955,-0.09713452364946955,-0.1336230612210239,-0.16770407177196067,-0.1940797631191735,-0.20758282289531216,-0.2041557055442047,-0.1826000995385633,-0.14233206406676366,-0.08575680916041968,-0.01732365258455037,0.05709898152822154,0.1301786258399209,0.19667032825851857,0.25190226857552045,0.2928654914218821,0.3183536686006478,0.32799698949169365,0.32455789555425524,0.3112852491692305,0.2920279264628248,0.2706953322100939,0.250201624829715,0.23381239094989023,0.22343513500365725,0.0,0.0,0.0,0.0,0.0,0.0,0.0,0.0,0.0,0.0,0.0,0.0,0.0,0.0,0.0,0.0,0.0,0.0,0.0,0.0,0.0,0.0,0.0,0.0,0.0,0.0,0.0,0.0,0.0,0.0,0.0,0.0,0.0,0.0,0.0,0.0,0.0,0.0,0.0,0.0,0.0,0.0,0.0,0.0,0.0,0.0,0.0,0.0,0.0,0.0,0.0,0.0,0.0,0.0,0.0,0.0,0.0,0.0,0.0,0.0,0.0,0.0,0.0,0.0,0.0,0.0,0.0,0.0,0.0,0.0,0.0,0.0,0.0,0.0,0.0,0.0,0.0,0.0,0.0,0.0,0.0,0.0,0.0,0.0,0.0,0.0,0.0,0.0,0.0,0.0,0.0,0.0,0.0,0.0,0.0,0.0,0.0,0.0,0.0,0.0,0.0,0.0,0.0,0.0,0.0,0.0,0.0,0.0,0.0,0.0,0.0,0.0,0.0,0.0,0.0,0.0,0.0,0.0,0.0,0.0,0.0,0.0,0.0,0.0,0.0,0.0,0.0,0.0,0.0,0.0,0.0,0.0,0.0,0.0,0.0,0.0,0.0,0.0,0.0,0.0,0.0,0.0,0.0,0.0,0.0,0.0,0.0,0.0,0.0,0.0,0.0,0.0,0.0,0.0,0.0,0.0,0.0,0.0,0.0,0.0,0.0,0.0,0.0,0.0,0.0,0.0,0.0,0.0,0.0,0.0,0.0,0.0,0.0
0.32799698949169365,0.32455789555425524,0.3112852491692305,0.2920279264628248,0.2706953322100939,0.250201624829715,0.23381239094989023,0.22343513500365725,0.21991052624468496,0.22303699581954,0.23145335676246703,0.24378675529800617,0.25830098971558535,0.27341903912168036,0.28798735324336194,0.30124437814749555,0.3134510215761391,0.3253553378258304,0.3381029318633668,0.35293771066718377,0.37076589389198034,0.3921721112280752,0.4170240645731073,0.4444837703894325,0.47315405584068276,0.5012926120263066,0.5275822594764937,0.5513311359039225,0.5728273621710493,0.5933704010141816,0.6148728604558862,0.6396517125735665,0.6694437096853776,0.7048025650811337,0.7446723506843288,0.7863137783949784,0.8259028506884313,0.8593649035798798,0.8833278535516914,0.895974300354476,0.8975118947192458,0.8900512035615575,0.8772735363105671,0.8632691679338256,0.8513557476151222,0.8429573722372381,0.8375728827751399,0.8325021119188574,0.8236745907344135,0.8067371948757686,0.7779422403685596,0.736076439792507,0.6818607207858189,0.6182516206483236,0.5498642604197372,0.4817745277445821,0.4193121104118773,0.3661710561638097,0.32414168797704135,0.29299132596370575,0.27056427519916,0.2541788681428845,0.24061281540327634,0.2271328402308238,0.21205513305125445,0.19472997210610626,0.17631858128214567,0.1584181523435842,0.14284958318799323,0.1311189401388032,0.1237145677912292,0.12093253738027286,0.12179141998469376,0.12473323057113808,0.12807641265569453,0.1300779781238894,0.1305633993112944,0.1294932183919172,0.127377138390861,0.12503388517258585,0.12281277892416699,0.12195444178683362,0.12254070339612101,0.12417550939614075,0.12619334473169477,0.12733076354062275,0.12802923726327162,0.12815474502419325,0.12782572583729268,0.12735280429080373,0.12638353024059945,0.12626998924801475,0.12707006965759218,0.1285482304580081,0.13031514056932628,0.1313786547553792,0.13239680431171352,0.1331548614256502,0.13347931582806638,0.13327747684784882,0.13206107929055394,0.13070096957296562,0.12917629208813325,0.12741274897118687,0.12538990302549322,0.12287743803423903,0.1206661156405725,0.1189704181392083,0.11791239683662022,0.11750232920313762,0.11744854653408747,0.1178614223103718,0.11845853543297434,0.11894366546938127,0.11911472170145976,0.11881963271433973,0.11845903687944837,0.11837323064493915,0.11898756553779581,0.1207271141997819,0.12384588938857712,0.12858275724885923,0.13476361324836705,0.14193584753655553,0.14946550743586015,0.15650879045238542,0.1628118413184513,0.0,0.0,0.0,0.0,0.0,0.0,0.0,0.0,0.0,0.0,0.0,0.0,0.0,0.0,0.0,0.0,0.0,0.0,0.0,0.0,0.0,0.0,0.0,0.0,0.0,0.0,0.0,0.0,0.0,0.0,0.0,0.0,0.0,0.0,0.0,0.0,0.0,0.0,0.0,0.0,0.0,0.0,0.0,0.0,0.0,0.0,0.0,0.0,0.0,0.0,0.0,0.0,0.0,0.0,0.0,0.0,0.0,0.0,0.0,0.0,0.0,0.0,0.0,0.0,0.0,0.0,0.0,0.0,0.0,0.0,0.0,0.0,0.0,0.0,0.0,0.0,0.0,0.0,0.0,0.0,0.0,0.0,0.0,0.0,0.0,0.0,0.0,0.0,0.0,0.0,0.0,0.0,0.0,0.0,0.0,0.0,0.0,0.0,0.0,0.0,0.0,0.0,0.0,0.0,0.0,0.0,0.0,0.0,0.0,0.0,0.0,0.0,0.0,0.0,0.0,0.0,0.0,0.0,0.0,0.0,0.0,0.0,0.0,0.0,0.0,0.0,0.0,0.0,0.0,0.0,0.0,0.0,0.0,0.0,0.0,0.0,0.0,0.0,0.0,0.0,0.0,0.0,0.0,0.0,0.0,0.0,0.0,0.0,0.0,0.0,0.0,0.0,0.0,0.0,0.0,0.0,0.0,0.0,0.0,0.0,0.0,0.0,0.0,0.0,0.0,0.0,0.0,0.0,0.0,0.0,0.0,0.0,0.0
0.24061281540327634,0.2271328402308238,0.21205513305125445,0.19472997210610626,0.17631858128214567,0.1584181523435842,0.14284958318799323,0.1311189401388032,0.1237145677912292,0.12093253738027286,0.12179141998469376,0.12473323057113808,0.12807641265569453,0.1300779781238894,0.1305633993112944,0.1294932183919172,0.127377138390861,0.12503388517258585,0.12281277892416699,0.12195444178683362,0.12254070339612101,0.12417550939614075,0.12619334473169477,0.12733076354062275,0.12802923726327162,0.12815474502419325,0.12782572583729268,0.12735280429080373,0.12638353024059945,0.12626998924801475,0.12707006965759218,0.1285482304580081,0.13031514056932628,0.1313786547553792,0.13239680431171352,0.1331548614256502,0.13347931582806638,0.13327747684784882,0.13206107929055394,0.13070096957296562,0.12917629208813325,0.12741274897118687,0.12538990302549322,0.12287743803423903,0.1206661156405725,0.1189704181392083,0.11791239683662022,0.11750232920313762,0.11744854653408747,0.1178614223103718,0.11845853543297434,0.11894366546938127,0.11911472170145976,0.11881963271433973,0.11845903687944837,0.11837323064493915,0.11898756553779581,0.1207271141997819,0.12384588938857712,0.12858275724885923,0.13476361324836705,0.14193584753655553,0.14946550743586015,0.15650879045238542,0.1628118413184513,0.1682639655854782,0.17316653430423062,0.1782039006719384,0.18398610634479826,0.1917822408229651,0.20235556861555987,0.21593120596587445,0.2319883546167987,0.24885570951883113,0.2648937334740025,0.277828214393825,0.28540061316842996,0.28577280856165904,0.27750960692836035,0.26097079856631944,0.23734429025797213,0.20876662841060883,0.17796249159262215,0.14733280950619065,0.11982416234602482,0.09734835800277715,0.08083574891456752,0.07015217462358522,0.06373060502742324,0.06044971961415122,0.05873088981367135,0.05728005009591739,0.05532035710550761,0.052028898224645494,0.0482706429601049,0.044762852085769717,0.04211704193398053,0.040488539587430004,0.03867940302130283,0.03639349606929006,0.03274709863096415,0.027117068129522685,0.019467461511410024,0.009715711703687357,0.00021788403943528946,-0.006520562706542584,-0.007834310632837875,-0.001553616564609959,0.012489619032421372,0.03495550979891846,0.06471499252852854,0.09965752407069493,0.1370534073752193,0.1731738842778989,0.2062473528124717,0.23470617973383032,0.2578366240948529,0.2756604313150485,0.287979885308161,0.29635026703931433,0.3019938364335941,0.30613775648071534,0.3098729963817528,0.31353407517168247,0.3183369123370922,0.32484349859075784,0.3333937816180059,0.0,0.0,0.0,0.0,0.0,0.0,0.0,0.0,0.0,0.0,0.0,0.0,0.0,0.0,0.0,0.0,0.0,0.0,0.0,0.0,0.0,0.0,0.0,0.0,0.0,0.0,0.0,0.0,0.0,0.0,0.0,0.0,0.0,0.0,0.0,0.0,0.0,0.0,0.0,0.0,0.0,0.0,0.0,0.0,0.0,0.0,0.0,0.0,0.0,0.0,0.0,0.0,0.0,0.0,0.0,0.0,0.0,0.0,0.0,0.0,0.0,0.0,0.0,0.0,0.0,0.0,0.0,0.0,0.0,0.0,0.0,0.0,0.0,0.0,0.0,0.0,0.0,0.0,0.0,0.0,0.0,0.0,0.0,0.0,0.0,0.0,0.0,0.0,0.0,0.0,0.0,0.0,0.0,0.0,0.0,0.0,0.0,0.0,0.0,0.0,0.0,0.0,0.0,0.0,0.0,0.0,0.0,0.0,0.0,0.0,0.0,0.0,0.0,0.0,0.0,0.0,0.0,0.0,0.0,0.0,0.0,0.0,0.0,0.0,0.0,0.0,0.0,0.0,0.0,0.0,0.0,0.0,0.0,0.0,0.0,0.0,0.0,0.0,0.0,0.0,0.0,0.0,0.0,0.0,0.0,0.0,0.0,0.0,0.0,0.0,0.0,0.0,0.0,0.0,0.0,0.0,0.0,0.0,0.0,0.0,0.0,0.0,0.0,0.0,0.0,0.0,0.0,0.0,0.0,0.0,0.0,0.0,0.0
0.21605708181125616,0.19760034751225342,0.18747997602620375,0.18241060700349135,0.17910366814906403,0.174990712946198,0.16833981616441224,0.15961515448324232,0.14986704173694812,0.1407409946431438,0.13392434408113982,0.13024788844030752,0.1306946859573158,0.13475694698943702,0.14116972441446118,0.1483267836393384,0.1542341667417218,0.15866408312820288,0.16130725379133493,0.16243639929550407,0.16272922319753702,0.1623419258332046,0.16283316189502614,0.16447468705165172,0.16706929991206002,0.17011076959341714,0.17234632470906505,0.1743295005530603,0.17582947392932843,0.1768211909230881,0.17749231598929727,0.17747097746902268,0.17816807061041162,0.17971148636935522,0.18195290104825204,0.18457302809613074,0.18662532909590257,0.18869184727361304,0.19043193937465144,0.19150466902294744,0.1916537402029642,0.19030206066802527,0.18823367147765202,0.18554104590465856,0.18235366077229231,0.17887900299135706,0.17511205974637126,0.17184681956047979,0.1692807065903472,0.1674234182266046,0.16610426577974993,0.16489041024119366,0.16361413899365337,0.16187895088901919,0.15938479222285346,0.15605387859352968,0.151974409998029,0.1479552272205501,0.1448986868951839,0.14388537948236205,0.1460034914073094,0.15195860420762763,0.1624376312998331,0.1773455112008182,0.19590393937996758,0.21668905564319943,0.23789222373823127,0.25738107314092434,0.2730621943424755,0.28332280423884904,0.28737461987908947,0.2857924521155377,0.27943621178550004,0.26978049225229855,0.25847415600611584,0.24701588650380982,0.23648430257455338,0.2275066910590001,0.21997819390483822,0.21330964097713262,0.2066571531285301,0.19878675870020276,0.18954002432820188,0.17882900374271518,0.1669711542264764,0.15457239992823718,0.1419488113667774,0.13014387051929133,0.11962282931634198,0.11049470449356066,0.10248764672794426,0.09463840682550896,0.08664865257794224,0.07794703514805545,0.06819601324341823,0.05740964840436269,0.045583227079567266,0.033949527246019226,0.0236862131762949,0.016081832748523837,0.012331650080781114,0.012905407511657311,0.01878046130198322,0.030091450688261,0.04636121210151907,0.06636851913277031,0.08749460979511144,0.10731546722866969,0.12222798816018804,0.1280459591160114,0.12040538818475949,0.09478085030176903,0.04923216621001436,-0.016364762237252913,-0.0992561014818297,-0.19362343718780423,-0.29175850948566384,-0.38250052509007254,-0.45479037022065666,-0.49880537733991487,-0.5076522625603679,-0.47963676662070803,-0.415746400373913,-0.3220328091751078,-0.2079007742414839,-0.084639261607922,0.03532355211675515,0.0,0.0,0.0,0.0,0.0,0.0,0.0,0.0,0.0,0.0,0.0,0.0,0.0,0.0,0.0,0.0,0.0,0.0,0.0,0.0,0.0,0.0,0.0,0.0,0.0,0.0,0.0,0.0,0.0,0.0,0.0,0.0,0.0,0.0,0.0,0.0,0.0,0.0,0.0,0.0,0.0,0.0,0.0,0.0,0.0,0.0,0.0,0.0,0.0,0.0,0.0,0.0,0.0,0.0,0.0,0.0,0.0,0.0,0.0,0.0,0.0,0.0,0.0,0.0,0.0,0.0,0.0,0.0,0.0,0.0,0.0,0.0,0.0,0.0,0.0,0.0,0.0,0.0,0.0,0.0,0.0,0.0,0.0,0.0,0.0,0.0,0.0,0.0,0.0,0.0,0.0,0.0,0.0,0.0,0.0,0.0,0.0,0.0,0.0,0.0,0.0,0.0,0.0,0.0,0.0,0.0,0.0,0.0,0.0,0.0,0.0,0.0,0.0,0.0,0.0,0.0,0.0,0.0,0.0,0.0,0.0,0.0,0.0,0.0,0.0,0.0,0.0,0.0,0.0,0.0,0.0,0.0,0.0,0.0,0.0,0.0,0.0,0.0,0.0,0.0,0.0,0.0,0.0,0.0,0.0,0.0,0.0,0.0,0.0,0.0,0.0,0.0,0.0,0.0,0.0,0.0,0.0,0.0,0.0,0.0,0.0,0.0,0.0,0.0,0.0,0.0,0.0,0.0,0.0,0.0,0.0,0.0,0.0
-0.49880537733991487,-0.5076522625603679,-0.47963676662070803,-0.415746400373913,-0.3220328091751078,-0.2079007742414839,-0.084639261607922,0.03532355211675515,0.14291823366801032,0.23116360408511108,0.29643027159325885,0.33837373934452386,0.3584678002106434,0.36185797075639853,0.3540758248867654,0.34069493812166757,0.3265136555526142,0.31442709184832746,0.3069879723866518,0.3049384685698048,0.3078838584851735,0.3146535717607045,0.3234305488272062,0.3329757388202325,0.34216508639214843,0.35037593416225793,0.3575292871353934,0.3638330505326114,0.3702532073878784,0.3778219884022075,0.38758604566528787,0.4004050025100822,0.4166519045501306,0.43643519564140865,0.4592567808841044,0.4841259498227511,0.5097220009024176,0.5345200858251999,0.5576697179430083,0.5788923445584108,0.5988334864426942,0.6190389992947529,0.6414338385577397,0.6684135948449601,0.701507576398453,0.7409274995172515,0.785194003708423,0.8311366871020175,0.8744933151649456,0.9109657294338525,0.9371420705967517,0.9513490081220931,0.954197032096725,0.9479411569089944,0.9367242786986858,0.9250130321598135,0.9162534683773061,0.9116688679205099,0.9100543414475873,0.9078457066337932,0.8999797169120994,0.8811579286325192,0.846877021247352,0.7956750521270609,0.7285033757583873,0.6490874309829667,0.5632709262329813,0.4775742063792922,0.3990075888441063,0.33268261365401264,0.2814006355345842,0.2453839238334434,0.22222348954182194,0.20868834977628153,0.2005072724974186,0.1937395516836792,0.18557321675958202,0.1743666444149764,0.16098362914079317,0.14701720827665926,0.13461076366078692,0.12576250968572067,0.1212712931945604,0.1219534671251249,0.1270096132996924,0.13482877788536568,0.1434753737819958,0.15071211653210748,0.1560924008255071,0.15930225441892468,0.16071993972457002,0.16118823787827088,0.16114847868777496,0.16213502391522325,0.1644870759792092,0.16801458956300186,0.1721570756389741,0.17566047049928604,0.1788095823314957,0.18119536898442914,0.18262075551817264,0.18312591339967726,0.18232819235127715,0.18149413992545188,0.18074331528083537,0.18001215534133613,0.17918186661402527,0.1776578720519963,0.17644902682664104,0.17562826868763884,0.17522346005785597,0.17523781982837328,0.1751500465042413,0.17573748604993972,0.17670712131146937,0.17763782283746313,0.17817060321563735,0.17778332365665092,0.17730842008961084,0.1772384373458757,0.1782501900021249,0.1811033866029014,0.18618481641172874,0.1943235910827516,0.20560213104444994,0.21957987540481408,0.23529170638755953,0.0,0.0,0.0,0.0,0.0,0.0,0.0,0.0,0.0,0.0,0.0,0.0,0.0,0.0,0.0,0.0,0.0,0.0,0.0,0.0,0.0,0.0,0.0,0.0,0.0,0.0,0.0,0.0,0.0,0.0,0.0,0.0,0.0,0.0,0.0,0.0,0.0,0.0,0.0,0.0,0.0,0.0,0.0,0.0,0.0,0.0,0.0,0.0,0.0,0.0,0.0,0.0,0.0,0.0,0.0,0.0,0.0,0.0,0.0,0.0,0.0,0.0,0.0,0.0,0.0,0.0,0.0,0.0,0.0,0.0,0.0,0.0,0.0,0.0,0.0,0.0,0.0,0.0,0.0,0.0,0.0,0.0,0.0,0.0,0.0,0.0,0.0,0.0,0.0,0.0,0.0,0.0,0.0,0.0,0.0,0.0,0.0,0.0,0.0,0.0,0.0,0.0,0.0,0.0,0.0,0.0,0.0,0.0,0.0,0.0,0.0,0.0,0.0,0.0,0.0,0.0,0.0,0.0,0.0,0.0,0.0,0.0,0.0,0.0,0.0,0.0,0.0,0.0,0.0,0.0,0.0,0.0,0.0,0.0,0.0,0.0,0.0,0.0,0.0,0.0,0.0,0.0,0.0,0.0,0.0,0.0,0.0,0.0,0.0,0.0,0.0,0.0,0.0,0.0,0.0,0.0,0.0,0.0,0.0,0.0,0.0,0.0,0.0,0.0,0.0,0.0,0.0,0.0,0.0,0.0,0.0,0.0,0.0
0.20868834977628153,0.2005072724974186,0.1937395516836792,0.18557321675958202,0.1743666444149764,0.16098362914079317,0.14701720827665926,0.13461076366078692,0.12576250968572067,0.1212712931945604,0.1219534671251249,0.1270096132996924,0.13482877788536568,0.1434753737819958,0.15071211653210748,0.1560924008255071,0.15930225441892468,0.16071993972457002,0.16118823787827088,0.16114847868777496,0.16213502391522325,0.1644870759792092,0.16801458956300186,0.1721570756389741,0.17566047049928604,0.1788095823314957,0.18119536898442914,0.18262075551817264,0.18312591339967726,0.18232819235127715,0.18149413992545188,0.18074331528083537,0.18001215534133613,0.17918186661402527,0.1776578720519963,0.17644902682664104,0.17562826868763884,0.17522346005785597,0.17523781982837328,0.1751500465042413,0.17573748604993972,0.17670712131146937,0.17763782283746313,0.17817060321563735,0.17778332365665092,0.17730842008961084,0.1772384373458757,0.1782501900021249,0.1811033866029014,0.18618481641172874,0.1943235910827516,0.20560213104444994,0.21957987540481408,0.23529170638755953,0.2512412364249539,0.26601328486741593,0.2780364844104522,0.28607193603730763,0.2894800261722177,0.2884385394307655,0.2837313623884617,0.276550021675443,0.2682455520311669,0.2600285775144575,0.2525904137328292,0.24639460878181177,0.24117339861425305,0.23621301049908053,0.23057712885669743,0.22303801441018703,0.21337262852617173,0.20153955112115454,0.18799029755548924,0.173558678123228,0.15889739062458594,0.14534725917496605,0.13366093423711115,0.12413504317946182,0.1165402273897586,0.10980466398621762,0.10337952662766363,0.09639151526008062,0.08822724919954353,0.07873485871287521,0.06790176888724468,0.05715237915133972,0.04799125702320167,0.04208322345527915,0.04092949003599183,0.04509644619730542,0.05545600109826159,0.07176933158127856,0.09302916749886603,0.11750002980576425,0.14223330052464292,0.16503888538325726,0.18310222848618354,0.19362690357923307,0.19407056957553667,0.1817445807385759,0.15635816886698237,0.11853470262979372,0.07053322917728275,0.01621528712107343,-0.0401431337976994,-0.09174899596866976,-0.13240731829715488,-0.1568473783281076,-0.1616399953333898,-0.14687548263254444,-0.11314578660192631,-0.06401561251814329,-0.00463381338466229,0.059087903864075954,0.12041742159969465,0.17541868479283407,0.22100697549906725,0.25577642362120895,0.2798158030615417,0.2935087239459158,0.2995829871553595,0.30052940929441757,0.29881734012549244,0.2965878226677819,0.2948979289363845,0.2953432413681265,0.2985589142132741,0.0,0.0,0.0,0.0,0.0,0.0,0.0,0.0,0.0,0.0,0.0,0.0,0.0,0.0,0.0,0.0,0.0,0.0,0.0,0.0,0.0,0.0,0.0,0.0,0.0,0.0,0.0,0.0,0.0,0.0,0.0,0.0,0.0,0.0,0.0,0.0,0.0,0.0,0.0,0.0,0.0,0.0,0.0,0.0,0.0,0.0,0.0,0.0,0.0,0.0,0.0,0.0,0.0,0.0,0.0,0.0,0.0,0.0,0.0,0.0,0.0,0.0,0.0,0.0,0.0,0.0,0.0,0.0,0.0,0.0,0.0,0.0,0.0,0.0,0.0,0.0,0.0,0.0,0.0,0.0,0.0,0.0,0.0,0.0,0.0,0.0,0.0,0.0,0.0,0.0,0.0,0.0,0.0,0.0,0.0,0.0,0.0,0.0,0.0,0.0,0.0,0.0,0.0,0.0,0.0,0.0,0.0,0.0,0.0,0.0,0.0,0.0,0.0,0.0,0.0,0.0,0.0,0.0,0.0,0.0,0.0,0.0,0.0,0.0,0.0,0.0,0.0,0.0,0.0,0.0,0.0,0.0,0.0,0.0,0.0,0.0,0.0,0.0,0.0,0.0,0.0,0.0,0.0,0.0,0.0,0.0,0.0,0.0,0.0,0.0,0.0,0.0,0.0,0.0,0.0,0.0,0.0,0.0,0.0,0.0,0.0,0.0,0.0,0.0,0.0,0.0,0.0,0.0,0.0,0.0,0.0,0.0,0.0
0.2995829871553595,0.30052940929441757,0.29881734012549244,0.2965878226677819,0.2948979289363845,0.2953432413681265,0.2985589142132741,0.3046713944423033,0.31335984227402197,0.32365697983993175,0.33501147445247015,0.3466192359337536,0.3578239734801654,0.36825659629262986,0.37770217929768646,0.3868621455545757,0.3966771410579321,0.40835980044634834,0.4231533503112377,0.4418669309899575,0.46510576092532,0.4926276415227776,0.5234027352552164,0.555750846559855,0.5874892603472216,0.6170645823134999,0.6434637527277817,0.666786224422354,0.6883483428084721,0.7101950065236454,0.7352460444611535,0.7656900143961698,0.8024238480222764,0.8444994296949543,0.8888757158061682,0.9312768680752093,0.9667361882582577,0.9908117003805246,1.0006505165814363,0.9956369603947394,0.9776394261625844,0.950614026278967,0.9195024413158079,0.8889372064957496,0.8618611390439738,0.8393762690486236,0.8200892977782289,0.8007512787007635,0.7772238964100628,0.7453247169025025,0.7030017737046109,0.6499019540012827,0.5879205523331327,0.520845868922138,0.4532411284252858,0.3905249421102469,0.3368274117575291,0.29463465471766787,0.2644678414342134,0.24467484523047242,0.23300999630489866,0.22618074699220017,0.22100731524076614,0.21508046857164329,0.2068114557932629,0.19663626436214607,0.18547779040022203,0.1747175658750679,0.16569309570907317,0.1589220100071094,0.15507642590027979,0.15359809137611116,0.15340927186421707,0.1533114941902973,0.15190936196952373,0.1495288817792914,0.1464230158963952,0.1432716632541311,0.14092989267152145,0.1395149898171346,0.14022575933436682,0.1428897281660664,0.14683027674465574,0.15113143264498163,0.15427219269172765,0.15676142808531632,0.1585318045386654,0.15987106322522443,0.1613329726184418,0.16279257510248768,0.1659050493862411,0.1708074640923893,0.17717061408044238,0.1843407248043335,0.1908964818919774,0.19707187465491754,0.20219314412406555,0.2057184565114586,0.2073484769902252,0.20656663078511797,0.2044438912254862,0.2013313967290388,0.19760297171872784,0.1936533460781583,0.18953709701761245,0.18612068680225616,0.18351587800058913,0.1815782401069719,0.17995821516609142,0.17802637108146732,0.17558202201513903,0.17222610601281232,0.1677478901950807,0.16223766112188628,0.15595501269569187,0.14997038084046932,0.14533671334560497,0.14318109101594026,0.1445171070776812,0.1498270199993824,0.1596020598036073,0.173508217593957,0.19060260490649406,0.20943847880058297,0.22829670276440278,0.24546661683609464,0.2593988124020485,0.0,0.0,0.0,0.0,0.0,0.0,0.0,0.0,0.0,0.0,0.0,0.0,0.0,0.0,0.0,0.0,0.0,0.0,0.0,0.0,0.0,0.0,0.0,0.0,0.0,0.0,0.0,0.0,0.0,0.0,0.0,0.0,0.0,0.0,0.0,0.0,0.0,0.0,0.0,0.0,0.0,0.0,0.0,0.0,0.0,0.0,0.0,0.0,0.0,0.0,0.0,0.0,0.0,0.0,0.0,0.0,0.0,0.0,0.0,0.0,0.0,0.0,0.0,0.0,0.0,0.0,0.0,0.0,0.0,0.0,0.0,0.0,0.0,0.0,0.0,0.0,0.0,0.0,0.0,0.0,0.0,0.0,0.0,0.0,0.0,0.0,0.0,0.0,0.0,0.0,0.0,0.0,0.0,0.0,0.0,0.0,0.0,0.0,0.0,0.0,0.0,0.0,0.0,0.0,0.0,0.0,0.0,0.0,0.0,0.0,0.0,0.0,0.0,0.0,0.0,0.0,0.0,0.0,0.0,0.0,0.0,0.0,0.0,0.0,0.0,0.0,0.0,0.0,0.0,0.0,0.0,0.0,0.0,0.0,0.0,0.0,0.0,0.0,0.0,0.0,0.0,0.0,0.0,0.0,0.0,0.0,0.0,0.0,0.0,0.0,0.0,0.0,0.0,0.0,0.0,0.0,0.0,0.0,0.0,0.0,0.0,0.0,0.0,0.0,0.0,0.0,0.0,0.0,0.0,0.0,0.0,0.0,0.0
0.24467484523047242,0.23300999630489866,0.22618074699220017,0.22100731524076614,0.21508046857164329,0.2068114557932629,0.19663626436214607,0.18547779040022203,0.1747175658750679,0.16569309570907317,0.1589220100071094,0.15507642590027979,0.15359809137611116,0.15340927186421707,0.1533114941902973,0.15190936196952373,0.1495288817792914,0.1464230158963952,0.1432716632541311,0.14092989267152145,0.1395149898171346,0.14022575933436682,0.1428897281660664,0.14683027674465574,0.15113143264498163,0.15427219269172765,0.15676142808531632,0.1585318045386654,0.15987106322522443,0.1613329726184418,0.16279257510248768,0.1659050493862411,0.1708074640923893,0.17717061408044238,0.1843407248043335,0.1908964818919774,0.19707187465491754,0.20219314412406555,0.2057184565114586,0.2073484769902252,0.20656663078511797,0.2044438912254862,0.2013313967290388,0.19760297171872784,0.1936533460781583,0.18953709701761245,0.18612068680225616,0.18351587800058913,0.1815782401069719,0.17995821516609142,0.17802637108146732,0.17558202201513903,0.17222610601281232,0.1677478901950807,0.16223766112188628,0.15595501269569187,0.14997038084046932,0.14533671334560497,0.14318109101594026,0.1445171070776812,0.1498270199993824,0.1596020598036073,0.173508217593957,0.19060260490649406,0.20943847880058297,0.22829670276440278,0.24546661683609464,0.2593988124020485,0.26910074076140567,0.2743598505234847,0.2760553930301766,0.27527786663578707,0.2733987700935223,0.271653585511607,0.27084039431061196,0.2710958775648723,0.27204522120968494,0.27262948731781966,0.2714924064195755,0.26732093809773916,0.2588283589016348,0.24606824773578329,0.22952175172536102,0.21030018375814935,0.18990694133400216,0.1695466755715366,0.15097875258043217,0.13516421500764125,0.12243834157560768,0.11249294457026518,0.10409480662994933,0.09658435238557145,0.0889614336008419,0.08049794127143675,0.07092009642045195,0.06003185072333977,0.0490947604569764,0.0393913135035169,0.03236464307572625,0.029347248270638747,0.030811285655823438,0.037755486753701,0.05020441172024333,0.06751968387797058,0.08833230618980929,0.10990053042159012,0.12997820074644537,0.145323153378265,0.15232181989841231,0.14731736410897986,0.12641903404116547,0.08830396229852173,0.033110670667583296,-0.036606342395468706,-0.11577791575543014,-0.19804537836094674,-0.2739225518049964,-0.33425322471063923,-0.3710454820087445,-0.3788731956198402,-0.35692209641559963,-0.3061894952082983,-0.23186998510432344,-0.14171473303183688,-0.044779182012833985,0.048993678914971736,0.1329703747836204,0.0,0.0,0.0,0.0,0.0,0.0,0.0,0.0,0.0,0.0,0.0,0.0,0.0,0.0,0.0,0.0,0.0,0.0,0.0,0.0,0.0,0.0,0.0,0.0,0.0,0.0,0.0,0.0,0.0,0.0,0.0,0.0,0.0,0.0,0.0,0.0,0.0,0.0,0.0,0.0,0.0,0.0,0.0,0.0,0.0,0.0,0.0,0.0,0.0,0.0,0.0,0.0,0.0,0.0,0.0,0.0,0.0,0.0,0.0,0.0,0.0,0.0,0.0,0.0,0.0,0.0,0.0,0.0,0.0,0.0,0.0,0.0,0.0,0.0,0.0,0.0,0.0,0.0,0.0,0.0,0.0,0.0,0.0,0.0,0.0,0.0,0.0,0.0,0.0,0.0,0.0,0.0,0.0,0.0,0.0,0.0,0.0,0.0,0.0,0.0,0.0,0.0,0.0,0.0,0.0,0.0,0.0,0.0,0.0,0.0,0.0,0.0,0.0,0.0,0.0,0.0,0.0,0.0,0.0,0.0,0.0,0.0,0.0,0.0,0.0,0.0,0.0,0.0,0.0,0.0,0.0,0.0,0.0,0.0,0.0,0.0,0.0,0.0,0.0,0.0,0.0,0.0,0.0,0.0,0.0,0.0,0.0,0.0,0.0,0.0,0.0,0.0,0.0,0.0,0.0,0.0,0.0,0.0,0.0,0.0,0.0,0.0,0.0,0.0,0.0,0.0,0.0,0.0,0.0,0.0,0.0,0.0,0.0
-0.3710454820087445,-0.3788731956198402,-0.35692209641559963,-0.3061894952082983,-0.23186998510432344,-0.14171473303183688,-0.044779182012833985,0.048993678914971736,0.1329703747836204,0.20215482746955124,0.2542213869395482,0.2893148315941722,0.30859371557572274,0.31622042481175416,0.316235260969568,0.3125401131105476,0.308379672976069,0.30542960645140815,0.30559821529657394,0.3094740169304804,0.3169545691087707,0.32744451435796573,0.3397232427196377,0.3531655857510196,0.36698857706055793,0.38061300029848244,0.39372136657710277,0.40604193755567586,0.4180978914488962,0.430531518891765,0.4441953364502923,0.4599982187962399,0.478549749418219,0.5003997822742017,0.525473285075164,0.5530821052650442,0.5819865913098241,0.6104481304921922,0.637236689070218,0.66152211418255,0.6833929721446703,0.7039749638234083,0.7249918131926204,0.7490028629257893,0.7779369656303269,0.8125774010081455,0.8520435406008751,0.8935965627626384,0.9332479323598933,0.9665543858040955,0.9896309908570331,1.0001121173783418,0.9978218022622511,0.9845110127955197,0.9639956449956906,0.9408352518044045,0.9190539439052717,0.9008983746234593,0.88653818645633,0.8738592777083933,0.8591197934122463,0.8379957704322014,0.8064754098275251,0.7629075795090238,0.7075202603605256,0.6428296083523014,0.5731529516822882,0.5034052298586361,0.4390643615817443,0.3840580004301201,0.34046646302903166,0.3083101329323749,0.28548117074708457,0.26940984129172185,0.25670588134022854,0.24436235837246323,0.23040659034542052,0.21389786173909914,0.19604837291901778,0.17854443484211382,0.1634275954675909,0.15250304775846613,0.1464907786024459,0.146012373486032,0.15013637561891277,0.15716158106514613,0.1650933028497153,0.17167413032261375,0.17639497914953764,0.17878431371328787,0.17900880868355074,0.17768355794096444,0.17500716077212392,0.172485426687789,0.17045099858245583,0.1688362848276319,0.1673396265891493,0.16498318671855858,0.16262595258937043,0.16034463672783786,0.1583611326673877,0.1569956952373342,0.15580361118336047,0.1560986923031519,0.15776105625562303,0.16035171306415677,0.1632884772464654,0.16541579924528568,0.16733527839348286,0.16877038773970013,0.1695357830554828,0.1695812592555966,0.16851832521079851,0.16734226312086836,0.1661286775492227,0.1648595893547641,0.1635119295419187,0.16180159031341776,0.1603805718553305,0.15926216081890562,0.1583459318606186,0.15744259982824077,0.15614769312501525,0.15451045099972877,0.1522828730991287,0.14929876167385392,0.1455782453196124,0.0,0.0,0.0,0.0,0.0,0.0,0.0,0.0,0.0,0.0,0.0,0.0,0.0,0.0,0.0,0.0,0.0,0.0,0.0,0.0,0.0,0.0,0.0,0.0,0.0,0.0,0.0,0.0,0.0,0.0,0.0,0.0,0.0,0.0,0.0,0.0,0.0,0.0,0.0,0.0,0.0,0.0,0.0,0.0,0.0,0.0,0.0,0.0,0.0,0.0,0.0,0.0,0.0,0.0,0.0,0.0,0.0,0.0,0.0,0.0,0.0,0.0,0.0,0.0,0.0,0.0,0.0,0.0,0.0,0.0,0.0,0.0,0.0,0.0,0.0,0.0,0.0,0.0,0.0,0.0,0.0,0.0,0.0,0.0,0.0,0.0,0.0,0.0,0.0,0.0,0.0,0.0,0.0,0.0,0.0,0.0,0.0,0.0,0.0,0.0,0.0,0.0,0.0,0.0,0.0,0.0,0.0,0.0,0.0,0.0,0.0,0.0,0.0,0.0,0.0,0.0,0.0,0.0,0.0,0.0,0.0,0.0,0.0,0.0,0.0,0.0,0.0,0.0,0.0,0.0,0.0,0.0,0.0,0.0,0.0,0.0,0.0,0.0,0.0,0.0,0.0,0.0,0.0,0.0,0.0,0.0,0.0,0.0,0.0,0.0,0.0,0.0,0.0,0.0,0.0,0.0,0.0,0.0,0.0,0.0,0.0,0.0,0.0,0.0,0.0,0.0,0.0,0.0,0.0,0.0,0.0,0.0,0.0
0.3083101329323749,0.28548117074708457,0.26940984129172185,0.25670588134022854,0.24436235837246323,0.23040659034542052,0.21389786173909914,0.19604837291901778,0.17854443484211382,0.1634275954675909,0.15250304775846613,0.1464907786024459,0.146012373486032,0.15013637561891277,0.15716158106514613,0.1650933028497153,0.17167413032261375,0.17639497914953764,0.17878431371328787,0.17900880868355074,0.17768355794096444,0.17500716077212392,0.172485426687789,0.17045099858245583,0.1688362848276319,0.1673396265891493,0.16498318671855858,0.16262595258937043,0.16034463672783786,0.1583611326673877,0.1569956952373342,0.15580361118336047,0.1560986923031519,0.15776105625562303,0.16035171306415677,0.1632884772464654,0.16541579924528568,0.16733527839348286,0.16877038773970013,0.1695357830554828,0.1695812592555966,0.16851832521079851,0.16734226312086836,0.1661286775492227,0.1648595893547641,0.1635119295419187,0.16180159031341776,0.1603805718553305,0.15926216081890562,0.1583459318606186,0.15744259982824077,0.15614769312501525,0.15451045099972877,0.1522828730991287,0.14929876167385392,0.1455782453196124,0.1412846907178275,0.1371854166903044,0.13401432021986695,0.13259405913114644,0.13371389081098398,0.13790984518828728,0.14557708024467816,0.15648489492253848,0.1698888280692632,0.18462197968488778,0.19935170949619826,0.21271706707311305,0.22352970389758728,0.23112073958073856,0.23553006855879158,0.2377203129342037,0.2388759866267376,0.24025673257620048,0.24283332525569767,0.24699523859252065,0.2523167300812004,0.2578637703984663,0.2619762481497095,0.2627527602514304,0.2584604086262497,0.24757239566862915,0.23014568953118617,0.20691678924206827,0.17949081774670295,0.15005509476862652,0.12065749978497155,0.0938236432018587,0.07124362349039828,0.053829899639144356,0.04164978091100337,0.033719320128511615,0.02919503344336799,0.026750305226313335,0.02513772839933339,0.023404182332688192,0.02064049038547693,0.017098826753312323,0.013053321034753606,0.008934729378818574,0.005158583754373024,0.0015944057824636205,-0.0011869852174438238,-0.003042716040205353,-0.003910009647433127,-0.0038362410331351155,-0.0035824337812614265,-0.003206653781226365,-0.003576516222721906,-0.006122266720361747,-0.01283106582064325,-0.026617969652817583,-0.04900295085297819,-0.08102282240080491,-0.12221245943194732,-0.1702240483496649,-0.22156913006079407,-0.26963275364100986,-0.30749043266466286,-0.3285116823073823,-0.32761703087868654,-0.3032742629573029,-0.25517680962987943,-0.18671245460774005,-0.10377833668885805,-0.013883989775970303,0.07405165067426109,0.0,0.0,0.0,0.0,0.0,0.0,0.0,0.0,0.0,0.0,0.0,0.0,0.0,0.0,0.0,0.0,0.0,0.0,0.0,0.0,0.0,0.0,0.0,0.0,0.0,0.0,0.0,0.0,0.0,0.0,0.0,0.0,0.0,0.0,0.0,0.0,0.0,0.0,0.0,0.0,0.0,0.0,0.0,0.0,0.0,0.0,0.0,0.0,0.0,0.0,0.0,0.0,0.0,0.0,0.0,0.0,0.0,0.0,0.0,0.0,0.0,0.0,0.0,0.0,0.0,0.0,0.0,0.0,0.0,0.0,0.0,0.0,0.0,0.0,0.0,0.0,0.0,0.0,0.0,0.0,0.0,0.0,0.0,0.0,0.0,0.0,0.0,0.0,0.0,0.0,0.0,0.0,0.0,0.0,0.0,0.0,0.0,0.0,0.0,0.0,0.0,0.0,0.0,0.0,0.0,0.0,0.0,0.0,0.0,0.0,0.0,0.0,0.0,0.0,0.0,0.0,0.0,0.0,0.0,0.0,0.0,0.0,0.0,0.0,0.0,0.0,0.0,0.0,0.0,0.0,0.0,0.0,0.0,0.0,0.0,0.0,0.0,0.0,0.0,0.0,0.0,0.0,0.0,0.0,0.0,0.0,0.0,0.0,0.0,0.0,0.0,0.0,0.0,0.0,0.0,0.0,0.0,0.0,0.0,0.0,0.0,0.0,0.0,0.0,0.0,0.0,0.0,0.0,0.0,0.0,0.0,0.0,0.0
-0.3032742629573029,-0.25517680962987943,-0.18671245460774005,-0.10377833668885805,-0.013883989775970303,0.07405165067426109,0.15364032597547891,0.21952656551543043,0.2685577454585425,0.29984905132674594,0.3136189248228461,0.3134162704963184,0.30316847726760593,0.2871908302519117,0.2695787666388534,0.2531593627909302,0.24091182017683557,0.2343559483843835,0.23396851928825252,0.23930848195096086,0.2489977554903903,0.26175276372224426,0.27608525581062476,0.29072802341945053,0.3048196805647669,0.3178428051187654,0.3301098525261935,0.3422931342803718,0.3553586886955341,0.3703308791785729,0.3879585725845395,0.40869623514494813,0.4323773090077128,0.4582302151102185,0.48501409629884357,0.5112641465498858,0.535860057725847,0.5583229966360098,0.5791218269776427,0.5996973134191141,0.6221377439794699,0.6487082655044538,0.6810634727073724,0.719576598859971,0.7629220612238823,0.8081290768755662,0.8509178548980609,0.8869207495190334,0.9126006466571976,0.9261468090286505,0.9280627253830348,0.9206213186837043,0.9078748257929581,0.894237781307382,0.883190069647294,0.8761570634136705,0.8721987074265032,0.8680676665706248,0.8590583811768824,0.8402333302659373,0.8074940526861619,0.7594669724732718,0.6970776238444276,0.6237927913741321,0.5449615246281515,0.4665312950913097,0.3945874819713792,0.33342650085211967,0.2851838404395024,0.24968971899036577,0.22462959005460179,0.20693217910297687,0.19289730277287856,0.179322521439722,0.1641492290553205,0.14653925018761493,0.1275283412085989,0.10869316250386789,0.09187694057959123,0.07860873912027523,0.06943476688048901,0.06457514342520522,0.06297342152586148,0.06302743738589096,0.06310136820484673,0.0616760248944246,0.05884340363458864,0.05492552556721654,0.050802289642798114,0.047593997289418224,0.04585046963749383,0.04676170766641827,0.05018069097018241,0.05533351945994145,0.0611099240532217,0.06586924868756007,0.06971563960129039,0.07233364190978901,0.07382393396933885,0.07462585081702518,0.07465553378353468,0.07549321489798151,0.07737159980203334,0.08013312363082077,0.0833645273603477,0.08601638851075474,0.08857121895311176,0.09062716410464684,0.09185899871464129,0.09210320390367023,0.09095455745184396,0.0893784481667968,0.08749447119535712,0.08536977060461562,0.08309102943434671,0.08055451597467629,0.0784271469666396,0.0767457712912355,0.07538198557485147,0.07407885496502319,0.07244321700492029,0.0703413943978633,0.06747094183944446,0.06366809908302137,0.05901414139895903,0.053858044384338534,0.04897378965737692,0.0,0.0,0.0,0.0,0.0,0.0,0.0,0.0,0.0,0.0,0.0,0.0,0.0,0.0,0.0,0.0,0.0,0.0,0.0,0.0,0.0,0.0,0.0,0.0,0.0,0.0,0.0,0.0,0.0,0.0,0.0,0.0,0.0,0.0,0.0,0.0,0.0,0.0,0.0,0.0,0.0,0.0,0.0,0.0,0.0,0.0,0.0,0.0,0.0,0.0,0.0,0.0,0.0,0.0,0.0,0.0,0.0,0.0,0.0,0.0,0.0,0.0,0.0,0.0,0.0,0.0,0.0,0.0,0.0,0.0,0.0,0.0,0.0,0.0,0.0,0.0,0.0,0.0,0.0,0.0,0.0,0.0,0.0,0.0,0.0,0.0,0.0,0.0,0.0,0.0,0.0,0.0,0.0,0.0,0.0,0.0,0.0,0.0,0.0,0.0,0.0,0.0,0.0,0.0,0.0,0.0,0.0,0.0,0.0,0.0,0.0,0.0,0.0,0.0,0.0,0.0,0.0,0.0,0.0,0.0,0.0,0.0,0.0,0.0,0.0,0.0,0.0,0.0,0.0,0.0,0.0,0.0,0.0,0.0,0.0,0.0,0.0,0.0,0.0,0.0,0.0,0.0,0.0,0.0,0.0,0.0,0.0,0.0,0.0,0.0,0.0,0.0,0.0,0.0,0.0,0.0,0.0,0.0,0.0,0.0,0.0,0.0,0.0,0.0,0.0,0.0,0.0,0.0,0.0,0.0,0.0,0.0,0.0
0.2851838404395024,0.24968971899036577,0.22462959005460179,0.20693217910297687,0.19289730277287856,0.179322521439722,0.1641492290553205,0.14653925018761493,0.1275283412085989,0.10869316250386789,0.09187694057959123,0.07860873912027523,0.06943476688048901,0.06457514342520522,0.06297342152586148,0.06302743738589096,0.06310136820484673,0.0616760248944246,0.05884340363458864,0.05492552556721654,0.050802289642798114,0.047593997289418224,0.04585046963749383,0.04676170766641827,0.05018069097018241,0.05533351945994145,0.0611099240532217,0.06586924868756007,0.06971563960129039,0.07233364190978901,0.07382393396933885,0.07462585081702518,0.07465553378353468,0.07549321489798151,0.07737159980203334,0.08013312363082077,0.0833645273603477,0.08601638851075474,0.08857121895311176,0.09062716410464684,0.09185899871464129,0.09210320390367023,0.09095455745184396,0.0893784481667968,0.08749447119535712,0.08536977060461562,0.08309102943434671,0.08055451597467629,0.0784271469666396,0.0767457712912355,0.07538198557485147,0.07407885496502319,0.07244321700492029,0.0703413943978633,0.06747094183944446,0.06366809908302137,0.05901414139895903,0.053858044384338534,0.04897378965737692,0.04516250487564965,0.043250894582883406,0.043949427832894856,0.04771022161725221,0.05463673185461566,0.06432055295359408,0.07593133214546371,0.08836043199716558,0.10016911548738779,0.11067423437988834,0.11945177851938228,0.126617758318425,0.13277143616143627,0.13826818211113936,0.14460629687370516,0.15282821398058058,0.16353042089622424,0.17658266809154183,0.19049810705870998,0.20395696267876742,0.21486027012541262,0.22098816758799253,0.22039390002164735,0.21136006302552715,0.19399956535034876,0.16932266750762184,0.13941413848873246,0.10708388804872289,0.07505211804026227,0.04630890686557665,0.02282310882727017,0.005434578783049867,-0.006226123924201595,-0.013715377592686743,-0.018797145920971686,-0.02341463362622732,-0.02901273008570042,-0.036182192908887946,-0.0447646185145833,-0.05342399123964573,-0.060639031631730136,-0.06508611631929508,-0.0661382618935743,-0.06437797284182584,-0.060878405783327365,-0.0574542234992061,-0.05589396173974738,-0.05727621913247753,-0.061678865161323114,-0.06695709149020374,-0.06958248544808435,-0.06497710321868713,-0.04841417637138077,-0.01645650898505836,0.0331736174409057,0.10000558334877745,0.18080747677022052,0.2698638417991832,0.35924046661652376,0.4415491577175538,0.5099307164499421,0.5595178886380315,0.5881418599697472,0.5958365712230241,0.5865655256887325,0.565680538697177,0.5392264925281874,0.5126874133307143,0.0,0.0,0.0,0.0,0.0,0.0,0.0,0.0,0.0,0.0,0.0,0.0,0.0,0.0,0.0,0.0,0.0,0.0,0.0,0.0,0.0,0.0,0.0,0.0,0.0,0.0,0.0,0.0,0.0,0.0,0.0,0.0,0.0,0.0,0.0,0.0,0.0,0.0,0.0,0.0,0.0,0.0,0.0,0.0,0.0,0.0,0.0,0.0,0.0,0.0,0.0,0.0,0.0,0.0,0.0,0.0,0.0,0.0,0.0,0.0,0.0,0.0,0.0,0.0,0.0,0.0,0.0,0.0,0.0,0.0,0.0,0.0,0.0,0.0,0.0,0.0,0.0,0.0,0.0,0.0,0.0,0.0,0.0,0.0,0.0,0.0,0.0,0.0,0.0,0.0,0.0,0.0,0.0,0.0,0.0,0.0,0.0,0.0,0.0,0.0,0.0,0.0,0.0,0.0,0.0,0.0,0.0,0.0,0.0,0.0,0.0,0.0,0.0,0.0,0.0,0.0,0.0,0.0,0.0,0.0,0.0,0.0,0.0,0.0,0.0,0.0,0.0,0.0,0.0,0.0,0.0,0.0,0.0,0.0,0.0,0.0,0.0,0.0,0.0,0.0,0.0,0.0,0.0,0.0,0.0,0.0,0.0,0.0,0.0,0.0,0.0,0.0,0.0,0.0,0.0,0.0,0.0,0.0,0.0,0.0,0.0,0.0,0.0,0.0,0.0,0.0,0.0,0.0,0.0,0.0,0.0,0.0,0.0
0.5099307164499421,0.5595178886380315,0.5881418599697472,0.5958365712230241,0.5865655256887325,0.565680538697177,0.5392264925281874,0.5126874133307143,0.4891628949649269,0.4710719798333266,0.4580654572948119,0.44791537849342095,0.4372329666916813,0.42155864446521474,0.3989211456930903,0.3683534690689882,0.33080578716030157,0.2889502864812035,0.24611962418608122,0.20684971748418135,0.1748317794555859,0.15250984988309002,0.14066760627072572,0.13834655176331084,0.14336728226210682,0.15281548912731804,0.16377756791171316,0.1739732116125236,0.18212464903519296,0.18823141176498562,0.19333359906760533,0.19910026521188862,0.20727881695432146,0.21911441313964727,0.23508100822724873,0.2547330248252012,0.2768152208906369,0.299617755828809,0.3213991149991369,0.3411023852180121,0.35863583323194653,0.3749786778943624,0.3919566947032965,0.41163463781568477,0.43596115694220505,0.4659625467739492,0.5013256875699235,0.5402892024309655,0.5796642864112347,0.6164636506835941,0.6477472873365815,0.6717884370783227,0.6886217101586344,0.6996478548316025,0.7087769945597441,0.7196302122125323,0.7350590933244112,0.7561327605022655,0.7811311464854502,0.8066893891788421,0.8268294787756584,0.8346158072690142,0.8236438108458968,0.7892804869946258,0.7306440868451374,0.6499526241808786,0.552733291671922,0.44698152514460454,0.34169911899370875,0.24590696695754702,0.1665274296380172,0.10768130003192325,0.07031923944331234,0.052409542415482395,0.04986514308208515,0.057279422556281566,0.06916963136474914,0.08096631785398586,0.08961993150486447,0.09408839905185863,0.0947922224774759,0.09328390556067195,0.09161339626465938,0.09161387315831915,0.09468255908642376,0.1010635479589855,0.11005175948827066,0.12028800255862963,0.12972295258616723,0.13760927937575007,0.143318849595511,0.14690109146757718,0.1489626088525999,0.14950640296183834,0.1504055185698797,0.15256107332056432,0.1564220309676877,0.1618597386179486,0.16740116814475806,0.1727959945434723,0.1767245194263204,0.1777888329808141,0.17475686838329735,0.16616027211577056,0.15261394514717502,0.1345364511910309,0.11297281171774241,0.08952790247256674,0.06554395314990612,0.04388169962570705,0.026089904599933746,0.012935347383394425,0.004298936561836089,-0.0013222791119809965,-0.004437902432145181,-0.006657036996610038,-0.009352117863674748,-0.013241872918485234,-0.018651536260776827,-0.024142982682930584,-0.02852622228351861,-0.03083580606062268,-0.03078268239880655,-0.029293700872580496,-0.027565557242222472,-0.02742516429189599,-0.030500203707229587,0.0,0.0,0.0,0.0,0.0,0.0,0.0,0.0,0.0,0.0,0.0,0.0,0.0,0.0,0.0,0.0,0.0,0.0,0.0,0.0,0.0,0.0,0.0,0.0,0.0,0.0,0.0,0.0,0.0,0.0,0.0,0.0,0.0,0.0,0.0,0.0,0.0,0.0,0.0,0.0,0.0,0.0,0.0,0.0,0.0,0.0,0.0,0.0,0.0,0.0,0.0,0.0,0.0,0.0,0.0,0.0,0.0,0.0,0.0,0.0,0.0,0.0,0.0,0.0,0.0,0.0,0.0,0.0,0.0,0.0,0.0,0.0,0.0,0.0,0.0,0.0,0.0,0.0,0.0,0.0,0.0,0.0,0.0,0.0,0.0,0.0,0.0,0.0,0.0,0.0,0.0,0.0,0.0,0.0,0.0,0.0,0.0,0.0,0.0,0.0,0.0,0.0,0.0,0.0,0.0,0.0,0.0,0.0,0.0,0.0,0.0,0.0,0.0,0.0,0.0,0.0,0.0,0.0,0.0,0.0,0.0,0.0,0.0,0.0,0.0,0.0,0.0,0.0,0.0,0.0,0.0,0.0,0.0,0.0,0.0,0.0,0.0,0.0,0.0,0.0,0.0,0.0,0.0,0.0,0.0,0.0,0.0,0.0,0.0,0.0,0.0,0.0,0.0,0.0,0.0,0.0,0.0,0.0,0.0,0.0,0.0,0.0,0.0,0.0,0.0,0.0,0.0,0.0,0.0,0.0,0.0,0.0,0.0
0.10768130003192325,0.07031923944331234,0.052409542415482395,0.04986514308208515,0.057279422556281566,0.06916963136474914,0.08096631785398586,0.08961993150486447,0.09408839905185863,0.0947922224774759,0.09328390556067195,0.09161339626465938,0.09161387315831915,0.09468255908642376,0.1010635479589855,0.11005175948827066,0.12028800255862963,0.12972295258616723,0.13760927937575007,0.143318849595511,0.14690109146757718,0.1489626088525999,0.14950640296183834,0.1504055185698797,0.15256107332056432,0.1564220309676877,0.1618597386179486,0.16740116814475806,0.1727959945434723,0.1767245194263204,0.1777888329808141,0.17475686838329735,0.16616027211577056,0.15261394514717502,0.1345364511910309,0.11297281171774241,0.08952790247256674,0.06554395314990612,0.04388169962570705,0.026089904599933746,0.012935347383394425,0.004298936561836089,-0.0013222791119809965,-0.004437902432145181,-0.006657036996610038,-0.009352117863674748,-0.013241872918485234,-0.018651536260776827,-0.024142982682930584,-0.02852622228351861,-0.03083580606062268,-0.03078268239880655,-0.029293700872580496,-0.027565557242222472,-0.02742516429189599,-0.030500203707229587,-0.037511215665768836,-0.04801481017701586,-0.059000611586766574,-0.0659041141715349,-0.06296247043733703,-0.044239748932731124,-0.005290049772563135,0.05690607654834895,0.14196492977133707,0.2459661782839046,0.3616471429333534,0.478667356542125,0.5867104812423298,0.6756503206297182,0.7374892529938503,0.7675340347994378,0.7642853313979685,0.7316186303126269,0.6762488566910201,0.6069807228382924,0.5331464194318399,0.4622463750773203,0.40121270122167346,0.35363101179291706,0.320132390611785,0.298758804064242,0.2848681781517432,0.2749580653919017,0.26544339651365395,0.25403211620637706,0.24003955557998977,0.22359332706527224,0.20716986390636377,0.19329190218772616,0.1842167886420374,0.18132030709573752,0.18433884254343075,0.19265755813820265,0.20466231281831396,0.21844370432816002,0.23226254603855193,0.2446654985745395,0.2553870517643394,0.26478348659491185,0.2737202364714525,0.28320478498136636,0.2939513416813418,0.3062895655851498,0.31997913557389235,0.3343321881021195,0.34848298273235945,0.361704257469011,0.37386410386570956,0.38559295478615496,0.39827067172878905,0.4137611804833526,0.43392175874139444,0.46010036775788954,0.4926520794643415,0.5306404931219612,0.5718755622187842,0.613074413838862,0.6514077991584561,0.6842593780784261,0.7103167253658327,0.7299899439542157,0.7448978771047511,0.7589670987432656,0.7753893098067457,0.7963662588076917,0.8223307940202694,0.0,0.0,0.0,0.0,0.0,0.0,0.0,0.0,0.0,0.0,0.0,0.0,0.0,0.0,0.0,0.0,0.0,0.0,0.0,0.0,0.0,0.0,0.0,0.0,0.0,0.0,0.0,0.0,0.0,0.0,0.0,0.0,0.0,0.0,0.0,0.0,0.0,0.0,0.0,0.0,0.0,0.0,0.0,0.0,0.0,0.0,0.0,0.0,0.0,0.0,0.0,0.0,0.0,0.0,0.0,0.0,0.0,0.0,0.0,0.0,0.0,0.0,0.0,0.0,0.0,0.0,0.0,0.0,0.0,0.0,0.0,0.0,0.0,0.0,0.0,0.0,0.0,0.0,0.0,0.0,0.0,0.0,0.0,0.0,0.0,0.0,0.0,0.0,0.0,0.0,0.0,0.0,0.0,0.0,0.0,0.0,0.0,0.0,0.0,0.0,0.0,0.0,0.0,0.0,0.0,0.0,0.0,0.0,0.0,0.0,0.0,0.0,0.0,0.0,0.0,0.0,0.0,0.0,0.0,0.0,0.0,0.0,0.0,0.0,0.0,0.0,0.0,0.0,0.0,0.0,0.0,0.0,0.0,0.0,0.0,0.0,0.0,0.0,0.0,0.0,0.0,0.0,0.0,0.0,0.0,0.0,0.0,0.0,0.0,0.0,0.0,0.0,0.0,0.0,0.0,0.0,0.0,0.0,0.0,0.0,0.0,0.0,0.0,0.0,0.0,0.0,0.0,0.0,0.0,0.0,0.0,0.0,0.0
0.7374892529938503,0.7675340347994378,0.7642853313979685,0.7316186303126269,0.6762488566910201,0.6069807228382924,0.5331464194318399,0.4622463750773203,0.40121270122167346,0.35363101179291706,0.320132390611785,0.298758804064242,0.2848681781517432,0.2749580653919017,0.26544339651365395,0.25403211620637706,0.24003955557998977,0.22359332706527224,0.20716986390636377,0.19329190218772616,0.1842167886420374,0.18132030709573752,0.18433884254343075,0.19265755813820265,0.20466231281831396,0.21844370432816002,0.23226254603855193,0.2446654985745395,0.2553870517643394,0.26478348659491185,0.2737202364714525,0.28320478498136636,0.2939513416813418,0.3062895655851498,0.31997913557389235,0.3343321881021195,0.34848298273235945,0.361704257469011,0.37386410386570956,0.38559295478615496,0.39827067172878905,0.4137611804833526,0.43392175874139444,0.46010036775788954,0.4926520794643415,0.5306404931219612,0.5718755622187842,0.613074413838862,0.6514077991584561,0.6842593780784261,0.7103167253658327,0.7299899439542157,0.7448978771047511,0.7589670987432656,0.7753893098067457,0.7963662588076917,0.8223307940202694,0.8512414176012079,0.8799617093073806,0.903455224627174,0.916441014314825,0.9146716440863232,0.8957820706425492,0.8606174721380049,0.8122431592823072,0.755573339995457,0.6962749214728923,0.639339114928594,0.5886817894161489,0.5457390902829183,0.5096729776871747,0.4778781988594615,0.44671117856424614,0.4130938729453611,0.3747948040116179,0.3312233516407432,0.28357293557969215,0.23431575997589787,0.18722776455325252,0.14579403142011016,0.11269538658425851,0.08926767229992288,0.07506732079097328,0.06881677105803921,0.06794794164251172,0.06955823999890058,0.07108355551385427,0.07056156709783018,0.06778045194558024,0.06314627660010363,0.05774359952293074,0.05289943872778566,0.049451112507972,0.04842618475036072,0.049688208601265535,0.05248136592271951,0.05574581511585517,0.058058196361077105,0.05945452864988874,0.05978823683844327,0.05932295921060226,0.058592191503924695,0.05759413902037737,0.05759972785133725,0.058676054020228866,0.0605110148836883,0.0625944356494281,0.06385007040057755,0.06489744420818949,0.06564000095762001,0.06613987810529343,0.06659667979493153,0.0666726105925157,0.06753800646994564,0.06916118203017367,0.07127116838402407,0.0735081970767421,0.07516343225245575,0.07676984825242668,0.07821587257391724,0.07943245862277992,0.08041971435855268,0.08102753513554337,0.08178814705236384,0.08271269049436468,0.08373776372835313,0.0847843512387372,0.0,0.0,0.0,0.0,0.0,0.0,0.0,0.0,0.0,0.0,0.0,0.0,0.0,0.0,0.0,0.0,0.0,0.0,0.0,0.0,0.0,0.0,0.0,0.0,0.0,0.0,0.0,0.0,0.0,0.0,0.0,0.0,0.0,0.0,0.0,0.0,0.0,0.0,0.0,0.0,0.0,0.0,0.0,0.0,0.0,0.0,0.0,0.0,0.0,0.0,0.0,0.0,0.0,0.0,0.0,0.0,0.0,0.0,0.0,0.0,0.0,0.0,0.0,0.0,0.0,0.0,0.0,0.0,0.0,0.0,0.0,0.0,0.0,0.0,0.0,0.0,0.0,0.0,0.0,0.0,0.0,0.0,0.0,0.0,0.0,0.0,0.0,0.0,0.0,0.0,0.0,0.0,0.0,0.0,0.0,0.0,0.0,0.0,0.0,0.0,0.0,0.0,0.0,0.0,0.0,0.0,0.0,0.0,0.0,0.0,0.0,0.0,0.0,0.0,0.0,0.0,0.0,0.0,0.0,0.0,0.0,0.0,0.0,0.0,0.0,0.0,0.0,0.0,0.0,0.0,0.0,0.0,0.0,0.0,0.0,0.0,0.0,0.0,0.0,0.0,0.0,0.0,0.0,0.0,0.0,0.0,0.0,0.0,0.0,0.0,0.0,0.0,0.0,0.0,0.0,0.0,0.0,0.0,0.0,0.0,0.0,0.0,0.0,0.0,0.0,0.0,0.0,0.0,0.0,0.0,0.0,0.0,0.0
-0.2610050002020546,-0.31990949058103774,-0.3565418954939974,-0.36662211152777596,-0.3502043452140886,-0.30888007470406903,-0.24776649159560019,-0.17390122254326754,-0.0950761732421592,-0.01948182392877603,0.047814836102298905,0.10335792129139273,0.14598263799692554,0.1764697650434576,0.1962202719171,0.2086849761210154,0.2169542399962433,0.22371141950439166,0.23088835328267898,0.23910277824355047,0.2489943359557145,0.2603753798623508,0.2727103514151801,0.28530694152190034,0.29732306318185175,0.30831476543246406,0.31802275818994946,0.3264635384899618,0.3339235995599411,0.3408477141462299,0.348079329767667,0.3566644318583977,0.367775597136638,0.382540257597982,0.40177520953280826,0.425842494163872,0.45444308114220866,0.4865229908228736,0.5203681608864619,0.5538112648057173,0.5850172234268444,0.6127239297467509,0.6367572681659225,0.6581960641749416,0.6790175866196768,0.7020601347430974,0.7296444893164918,0.7629268684745705,0.8012942909517717,0.8421630534072946,0.8813842688377282,0.9141686262800156,0.9361377675425598,0.9443925177286018,0.9383471983487609,0.919476267736506,0.8916042514352137,0.8596060996082266,0.8281030639514093,0.8002019815587406,0.7768349141596789,0.7566246548057041,0.7363322378328402,0.7118136101742168,0.6789958050095397,0.6356399040800581,0.5813625051808006,0.5180621238613135,0.4495686913377539,0.38062639799850456,0.3166169443351259,0.26172509364563484,0.21846073822149445,0.18732377250129098,0.16667917102337443,0.15409384738995335,0.1461434871883936,0.1395538310276812,0.13190565308141403,0.121798510925511,0.10980310925014986,0.09712944697522206,0.08548081503064413,0.07648753366153707,0.07094756309767668,0.06949844759085202,0.07144889922284114,0.07543458079795982,0.07986554935842691,0.08300901345355739,0.08470934420093928,0.08491021241708788,0.08413260401067794,0.08324356505531674,0.08262510856526838,0.08364972445867877,0.08642007499547777,0.09049730710523061,0.09511417989147099,0.09885965366330877,0.10205726534863722,0.10442278716695463,0.10597051704946325,0.10698479472762523,0.10720038494135936,0.10810244755408646,0.10987882927156649,0.11240069944363396,0.11533414882984185,0.1177295786870989,0.12010415201251882,0.12209423655050468,0.12336229839624165,0.12368350293205847,0.12259491709821488,0.12088263333351644,0.11864971449970747,0.11600939755415175,0.11313308583410064,0.11001487723550474,0.10735510010451976,0.10528909163221953,0.10376966938642858,0.10258266873614284,0.10130215229308345,0.09973436469149499,0.09753124155080965,0.0,0.0,0.0,0.0,0.0,0.0,0.0,0.0,0.0,0.0,0.0,0.0,0.0,0.0,0.0,0.0,0.0,0.0,0.0,0.0,0.0,0.0,0.0,0.0,0.0,0.0,0.0,0.0,0.0,0.0,0.0,0.0,0.0,0.0,0.0,0.0,0.0,0.0,0.0,0.0,0.0,0.0,0.0,0.0,0.0,0.0,0.0,0.0,0.0,0.0,0.0,0.0,0.0,0.0,0.0,0.0,0.0,0.0,0.0,0.0,0.0,0.0,0.0,0.0,0.0,0.0,0.0,0.0,0.0,0.0,0.0,0.0,0.0,0.0,0.0,0.0,0.0,0.0,0.0,0.0,0.0,0.0,0.0,0.0,0.0,0.0,0.0,0.0,0.0,0.0,0.0,0.0,0.0,0.0,0.0,0.0,0.0,0.0,0.0,0.0,0.0,0.0,0.0,0.0,0.0,0.0,0.0,0.0,0.0,0.0,0.0,0.0,0.0,0.0,0.0,0.0,0.0,0.0,0.0,0.0,0.0,0.0,0.0,0.0,0.0,0.0,0.0,0.0,0.0,0.0,0.0,0.0,0.0,0.0,0.0,0.0,0.0,0.0,0.0,0.0,0.0,0.0,0.0,0.0,0.0,0.0,0.0,0.0,0.0,0.0,0.0,0.0,0.0,0.0,0.0,0.0,0.0,0.0,0.0,0.0,0.0,0.0,0.0,0.0,0.0,0.0,0.0,0.0,0.0,0.0,0.0,0.0,0.0
0.18732377250129098,0.16667917102337443,0.15409384738995335,0.1461434871883936,0.1395538310276812,0.13190565308141403,0.121798510925511,0.10980310925014986,0.09712944697522206,0.08548081503064413,0.07648753366153707,0.07094756309767668,0.06949844759085202,0.07144889922284114,0.07543458079795982,0.07986554935842691,0.08300901345355739,0.08470934420093928,0.08491021241708788,0.08413260401067794,0.08324356505531674,0.08262510856526838,0.08364972445867877,0.08642007499547777,0.09049730710523061,0.09511417989147099,0.09885965366330877,0.10205726534863722,0.10442278716695463,0.10597051704946325,0.10698479472762523,0.10720038494135936,0.10810244755408646,0.10987882927156649,0.11240069944363396,0.11533414882984185,0.1177295786870989,0.12010415201251882,0.12209423655050468,0.12336229839624165,0.12368350293205847,0.12259491709821488,0.12088263333351644,0.11864971449970747,0.11600939755415175,0.11313308583410064,0.11001487723550474,0.10735510010451976,0.10528909163221953,0.10376966938642858,0.10258266873614284,0.10130215229308345,0.09973436469149499,0.09753124155080965,0.09447722242296888,0.09059644847747923,0.08616580976374079,0.08191529179609464,0.07865790220709047,0.07728336455565912,0.07861022821881564,0.08322005310381352,0.09135073137504855,0.10268842248419077,0.11642152988068145,0.13135536743276285,0.14575969569999508,0.15873653254528297,0.16952800260756404,0.17789460102494023,0.18410050664671007,0.18806180583930782,0.1913152555086678,0.1950197688305802,0.20009261285741314,0.20689441600025055,0.21450406343233425,0.22225002243237962,0.22856761169311554,0.2316267920943183,0.22968832535379102,0.22116902241891745,0.20591663981904484,0.18453823277566733,0.1586067430368157,0.13041129479187966,0.10227476704716808,0.07690055673934117,0.05615117675281138,0.040943447761961675,0.03113426422996828,0.025427392655168007,0.022434499981223384,0.020460432501086458,0.01816001950562072,0.014853186113734405,0.010378673302736497,0.005676478873526309,0.0017328299185301772,-0.0006820149642179267,-0.0014278920024994644,-0.0014557731581641285,-0.0019540121695919084,-0.004655426468459021,-0.011020174873376039,-0.02154649200508937,-0.03551542968971787,-0.049702259225341994,-0.0593742284518478,-0.05867712552250607,-0.04166509200767928,-0.0039404957795386875,0.05738744735548134,0.14180084615712865,0.24525094658389504,0.36037349410376146,0.4767748343248164,0.5841139227555384,0.6722665085131112,0.7332549202236617,0.7624120802152021,0.7582652107643206,0.7247085539659603,0.6684299257040659,0.5981941135492722,0.5233042732196416,0.4512719862846824,0.0,0.0,0.0,0.0,0.0,0.0,0.0,0.0,0.0,0.0,0.0,0.0,0.0,0.0,0.0,0.0,0.0,0.0,0.0,0.0,0.0,0.0,0.0,0.0,0.0,0.0,0.0,0.0,0.0,0.0,0.0,0.0,0.0,0.0,0.0,0.0,0.0,0.0,0.0,0.0,0.0,0.0,0.0,0.0,0.0,0.0,0.0,0.0,0.0,0.0,0.0,0.0,0.0,0.0,0.0,0.0,0.0,0.0,0.0,0.0,0.0,0.0,0.0,0.0,0.0,0.0,0.0,0.0,0.0,0.0,0.0,0.0,0.0,0.0,0.0,0.0,0.0,0.0,0.0,0.0,0.0,0.0,0.0,0.0,0.0,0.0,0.0,0.0,0.0,0.0,0.0,0.0,0.0,0.0,0.0,0.0,0.0,0.0,0.0,0.0,0.0,0.0,0.0,0.0,0.0,0.0,0.0,0.0,0.0,0.0,0.0,0.0,0.0,0.0,0.0,0.0,0.0,0.0,0.0,0.0,0.0,0.0,0.0,0.0,0.0,0.0,0.0,0.0,0.0,0.0,0.0,0.0,0.0,0.0,0.0,0.0,0.0,0.0,0.0,0.0,0.0,0.0,0.0,0.0,0.0,0.0,0.0,0.0,0.0,0.0,0.0,0.0,0.0,0.0,0.0,0.0,0.0,0.0,0.0,0.0,0.0,0.0,0.0,0.0,0.0,0.0,0.0,0.0,0.0,0.0,0.0,0.0,0.0
0.5841139227555384,0.6722665085131112,0.7332549202236617,0.7624120802152021,0.7582652107643206,0.7247085539659603,0.6684299257040659,0.5981941135492722,0.5233042732196416,0.4512719862846824,0.3890997388677716,0.3404561065098619,0.30609190081520016,0.2841964662240811,0.2702875476779941,0.26101036525864424,0.25281598074945555,0.24334614886858058,0.23174051834587625,0.2178629212557458,0.20382050305935032,0.19167147193822806,0.18318259100837367,0.17928457046767135,0.17941985742856745,0.1828284609790682,0.18797803737926258,0.1932992448123782,0.1976486593499074,0.20039337933419815,0.20219637337361462,0.20432375035104078,0.20841667732907232,0.21601274823214345,0.22803004268179256,0.24465562491139342,0.2651376429566495,0.28800269850158516,0.3114436483721462,0.3337841745631345,0.3540364096041318,0.3721757994073437,0.38919779667081367,0.40687454851214894,0.42726538298906686,0.452081104521963,0.48216777516369697,0.5171075853401969,0.5551788374690677,0.5934810441148001,0.6293831573352663,0.6603301091031792,0.6849434707366213,0.7034831264259864,0.7174056630910367,0.730453887980466,0.745705261427786,0.765324940801619,0.7897882287358859,0.8171753474174277,0.844454198029754,0.8666924840433987,0.8786611871791136,0.8760933310457854,0.8565545830406107,0.8207317895483682,0.771547950640005,0.7138178522774549,0.6531925093556811,0.594769741216391,0.5426427994094677,0.4985154367263359,0.4618451594936262,0.43029168766557674,0.40040193796842005,0.36913594516801607,0.3341602392166147,0.2946442176816236,0.2514382990442761,0.20666111961306913,0.16364462522442327,0.12553480068741862,0.09477419955015935,0.07258491042297555,0.058609678506024165,0.051607496481755465,0.04922464154484478,0.04883153097022666,0.0481548158435096,0.04550064400295548,0.040874935491158865,0.03487334882353409,0.028701917644155767,0.02372472126404365,0.02064734262521018,0.020441855202322338,0.022846339174455457,0.026971398918650354,0.03163074670762798,0.03531778152773399,0.03795069371701377,0.03931986210694436,0.039663883245900665,0.03953677215121231,0.03913551647178415,0.03969481667408778,0.041327535485423235,0.04374723169529781,0.04644731547654647,0.048462314951306776,0.05025541457017995,0.05164779456029938,0.05262780885833561,0.053357858801880625,0.053636281394622114,0.05458147491843174,0.05622623604329682,0.058369732116282096,0.06070651138799879,0.06262944858700806,0.0645472308074765,0.06623872194091113,0.06747348437152037,0.06805516397411693,0.06767466925287505,0.06662019929764045,0.06478743166643161,0.0,0.0,0.0,0.0,0.0,0.0,0.0,0.0,0.0,0.0,0.0,0.0,0.0,0.0,0.0,0.0,0.0,0.0,0.0,0.0,0.0,0.0,0.0,0.0,0.0,0.0,0.0,0.0,0.0,0.0,0.0,0.0,0.0,0.0,0.0,0.0,0.0,0.0,0.0,0.0,0.0,0.0,0.0,0.0,0.0,0.0,0.0,0.0,0.0,0.0,0.0,0.0,0.0,0.0,0.0,0.0,0.0,0.0,0.0,0.0,0.0,0.0,0.0,0.0,0.0,0.0,0.0,0.0,0.0,0.0,0.0,0.0,0.0,0.0,0.0,0.0,0.0,0.0,0.0,0.0,0.0,0.0,0.0,0.0,0.0,0.0,0.0,0.0,0.0,0.0,0.0,0.0,0.0,0.0,0.0,0.0,0.0,0.0,0.0,0.0,0.0,0.0,0.0,0.0,0.0,0.0,0.0,0.0,0.0,0.0,0.0,0.0,0.0,0.0,0.0,0.0,0.0,0.0,0.0,0.0,0.0,0.0,0.0,0.0,0.0,0.0,0.0,0.0,0.0,0.0,0.0,0.0,0.0,0.0,0.0,0.0,0.0,0.0,0.0,0.0,0.0,0.0,0.0,0.0,0.0,0.0,0.0,0.0,0.0,0.0,0.0,0.0,0.0,0.0,0.0,0.0,0.0,0.0,0.0,0.0,0.0,0.0,0.0,0.0,0.0,0.0,0.0,0.0,0.0,0.0,0.0,0.0,0.0
-0.33757680170973775,-0.36872264846356856,-0.37569075239981453,-0.3578869269222444,-0.31630192831432513,-0.25529946570980067,-0.18130258908737362,-0.10176570356406202,-0.024780781228074672,0.04411996956082036,0.10084798043257326,0.14349504333908403,0.17215934527169052,0.18785565399944146,0.19381016199195486,0.1933255761734617,0.18963863987681276,0.18548611021567488,0.18246091373611475,0.18205614364183006,0.18478615867507397,0.19055449431901905,0.19881287515965923,0.20861218015655292,0.21916823096618357,0.22970989907988226,0.23969514573010078,0.2488992385524362,0.25741015037270665,0.2657616729552835,0.27478919003191415,0.2855201901402598,0.2989856019452132,0.3160212799654921,0.3369298509055068,0.3614613339198875,0.38871213006276506,0.4172424729679118,0.4453725062166045,0.47161386293290214,0.4951145128141517,0.5160059234795915,0.5354993439906104,0.5556253730529113,0.5788092427486812,0.6069650967863268,0.6408310281668523,0.6794806641830595,0.7203248272681142,0.7592289064096246,0.7917316039835117,0.8139354136546499,0.8234619843755087,0.8202467842690392,0.8059061017861098,0.78417216776817,0.7595411518797894,0.7360406709809632,0.7161799391881082,0.7001475964427871,0.686017936115631,0.6702360194228523,0.6486193575864175,0.6174153709979977,0.5747070176654079,0.5205526011952617,0.4572522197430444,0.38891828357658725,0.3205379659016477,0.2573123411364108,0.20320173369842306,0.16042546764348997,0.12921720956675703,0.1079287233883718,0.0939362048852615,0.08391132216945431,0.07479360130261106,0.0644389959995932,0.05181409122473,0.03757430494289173,0.0230299304529572,0.009880521841073096,-0.00033921756757062093,-0.006942650080516901,-0.009528108817850975,-0.008890403370078343,-0.006417096569473023,-0.0036445244228705998,-0.0020973058936660125,-0.001947293503317827,-0.0031499092650896744,-0.005114733286892834,-0.006949831278170577,-0.00812675810940351,-0.007520489745332734,-0.005108035919520635,-0.00138882671579896,0.0028386615773472084,0.006396741344413284,0.00934943039099637,0.011354715851605222,0.01236719363470853,0.012627154432864997,0.012171205978616206,0.012182501046033325,0.012818661139362454,0.013958174696060997,0.015327404933275243,0.016329331007207293,0.01738313294544038,0.018205513650897613,0.018501023358737035,0.01802765543368549,0.01639607564490404,0.01407049624561145,0.010919553828264407,0.0068504372150918385,0.0019486521345674216,-0.003530405479834413,-0.00864421680636696,-0.012632098572072039,-0.014700865658254474,-0.014130351164550654,-0.010380949677329658,-0.003212540857242975,0.007083325091027127,0.01975427540593151,0.0,0.0,0.0,0.0,0.0,0.0,0.0,0.0,0.0,0.0,0.0,0.0,0.0,0.0,0.0,0.0,0.0,0.0,0.0,0.0,0.0,0.0,0.0,0.0,0.0,0.0,0.0,0.0,0.0,0.0,0.0,0.0,0.0,0.0,0.0,0.0,0.0,0.0,0.0,0.0,0.0,0.0,0.0,0.0,0.0,0.0,0.0,0.0,0.0,0.0,0.0,0.0,0.0,0.0,0.0,0.0,0.0,0.0,0.0,0.0,0.0,0.0,0.0,0.0,0.0,0.0,0.0,0.0,0.0,0.0,0.0,0.0,0.0,0.0,0.0,0.0,0.0,0.0,0.0,0.0,0.0,0.0,0.0,0.0,0.0,0.0,0.0,0.0,0.0,0.0,0.0,0.0,0.0,0.0,0.0,0.0,0.0,0.0,0.0,0.0,0.0,0.0,0.0,0.0,0.0,0.0,0.0,0.0,0.0,0.0,0.0,0.0,0.0,0.0,0.0,0.0,0.0,0.0,0.0,0.0,0.0,0.0,0.0,0.0,0.0,0.0,0.0,0.0,0.0,0.0,0.0,0.0,0.0,0.0,0.0,0.0,0.0,0.0,0.0,0.0,0.0,0.0,0.0,0.0,0.0,0.0,0.0,0.0,0.0,0.0,0.0,0.0,0.0,0.0,0.0,0.0,0.0,0.0,0.0,0.0,0.0,0.0,0.0,0.0,0.0,0.0,0.0,0.0,0.0,0.0,0.0,0.0,0.0
0.12921720956675703,0.1079287233883718,0.0939362048852615,0.08391132216945431,0.07479360130261106,0.0644389959995932,0.05181409122473,0.03757430494289173,0.0230299304529572,0.009880521841073096,-0.00033921756757062093,-0.006942650080516901,-0.009528108817850975,-0.008890403370078343,-0.006417096569473023,-0.0036445244228705998,-0.0020973058936660125,-0.001947293503317827,-0.0031499092650896744,-0.005114733286892834,-0.006949831278170577,-0.00812675810940351,-0.007520489745332734,-0.005108035919520635,-0.00138882671579896,0.0028386615773472084,0.006396741344413284,0.00934943039099637,0.011354715851605222,0.01236719363470853,0.012627154432864997,0.012171205978616206,0.012182501046033325,0.012818661139362454,0.013958174696060997,0.015327404933275243,0.016329331007207293,0.01738313294544038,0.018205513650897613,0.018501023358737035,0.01802765543368549,0.01639607564490404,0.01407049624561145,0.010919553828264407,0.0068504372150918385,0.0019486521345674216,-0.003530405479834413,-0.00864421680636696,-0.012632098572072039,-0.014700865658254474,-0.014130351164550654,-0.010380949677329658,-0.003212540857242975,0.007083325091027127,0.01975427540593151,0.03368327163307496,0.04721911487110169,0.05943860768277708,0.06947504867309356,0.07685482187394868,0.08149689443070057,0.08293510033533745,0.08229815047215483,0.0805775091414557,0.07878917192359965,0.07769750708169827,0.07705722514025151,0.0770570456536826,0.07715187931735859,0.07645296640807994,0.07389811973269594,0.06813852854818102,0.05883260584429472,0.04607535647363727,0.030640481861369,0.013844316878074624,-0.003056355476973504,-0.018310043942264907,-0.030751182205677498,-0.03992293285926875,-0.04620948597654669,-0.051010131073821394,-0.055589799090465915,-0.06125778381537241,-0.06877415465579878,-0.0780832458098847,-0.08862383663261876,-0.09860439740109232,-0.10624017693094807,-0.11016194202739323,-0.10995700564322268,-0.10683026076761089,-0.10236416299712255,-0.09890042398804672,-0.09856227085908623,-0.10242945427338922,-0.11026655217986428,-0.11893349985322971,-0.12347587507361472,-0.11760931861629352,-0.09490190290355578,-0.05062459048658374,0.01829095951784409,0.11131024415933981,0.22414768646669928,0.3490360499148876,0.4750637086872583,0.591472124385503,0.6879546954461898,0.7565902183301778,0.792974002733331,0.7959742022034052,0.7698658164356184,0.7216898048839653,0.6603780356240418,0.5951340561813073,0.5330715716025577,0.48056250536937467,0.4406731075526614,0.4136340081121001,0.39729410962928363,0.38706927428892973,0.37967227806880127,0.37196850882884874,0.3621523143360924,0.3499227929763631,0.33556373156058744,0.0,0.0,0.0,0.0,0.0,0.0,0.0,0.0,0.0,0.0,0.0,0.0,0.0,0.0,0.0,0.0,0.0,0.0,0.0,0.0,0.0,0.0,0.0,0.0,0.0,0.0,0.0,0.0,0.0,0.0,0.0,0.0,0.0,0.0,0.0,0.0,0.0,0.0,0.0,0.0,0.0,0.0,0.0,0.0,0.0,0.0,0.0,0.0,0.0,0.0,0.0,0.0,0.0,0.0,0.0,0.0,0.0,0.0,0.0,0.0,0.0,0.0,0.0,0.0,0.0,0.0,0.0,0.0,0.0,0.0,0.0,0.0,0.0,0.0,0.0,0.0,0.0,0.0,0.0,0.0,0.0,0.0,0.0,0.0,0.0,0.0,0.0,0.0,0.0,0.0,0.0,0.0,0.0,0.0,0.0,0.0,0.0,0.0,0.0,0.0,0.0,0.0,0.0,0.0,0.0,0.0,0.0,0.0,0.0,0.0,0.0,0.0,0.0,0.0,0.0,0.0,0.0,0.0,0.0,0.0,0.0,0.0,0.0,0.0,0.0,0.0,0.0,0.0,0.0,0.0,0.0,0.0,0.0,0.0,0.0,0.0,0.0,0.0,0.0,0.0,0.0,0.0,0.0,0.0,0.0,0.0,0.0,0.0,0.0,0.0,0.0,0.0,0.0,0.0,0.0,0.0,0.0,0.0,0.0,0.0,0.0,0.0,0.0,0.0,0.0,0.0,0.0,0.0,0.0,0.0,0.0,0.0,0.0
0.4750637086872583,0.591472124385503,0.6879546954461898,0.7565902183301778,0.792974002733331,0.7959742022034052,0.7698658164356184,0.7216898048839653,0.6603780356240418,0.5951340561813073,0.5330715716025577,0.48056250536937467,0.4406731075526614,0.4136340081121001,0.39729410962928363,0.38706927428892973,0.37967227806880127,0.37196850882884874,0.3621523143360924,0.3499227929763631,0.33556373156058744,0.32150371216394225,0.31010333462652145,0.3033939596591886,0.30255147632344254,0.3071469992212812,0.3166339609071407,0.32960431779354127,0.34441182366727874,0.3595220909199619,0.3734443164700763,0.3858100481694226,0.3967264387952325,0.40672845510015176,0.4164927055164812,0.4263833643979414,0.43670791903516354,0.44742827657643847,0.4582375852030243,0.4687157691553098,0.47842033356799185,0.487501237535752,0.49668967467458874,0.5072885382041165,0.5209388327941384,0.5391110172580011,0.5629330800845738,0.5926580238222343,0.6274101202298511,0.6651920279544837,0.7028532763512755,0.7379036093880028,0.7679318853056589,0.7916845009025818,0.8094452231148291,0.8223829292963314,0.8341924718818194,0.8477771050904482,0.8651996180985384,0.88697202063818,0.9112031162168421,0.9354489391741149,0.9553528338164275,0.9662909238770953,0.9644988181615309,0.9476265548620604,0.9165671392860766,0.8739593246028463,0.8240703530915866,0.7718424322401194,0.7214490202469116,0.6765844720083696,0.6385948952432147,0.6068517043598323,0.5791860463187078,0.5523182705757881,0.5238630237400198,0.49191335948182535,0.4559084479998553,0.4167437060554054,0.3761583652951652,0.33734006691370444,0.302965253622188,0.2750012729853053,0.254301365792103,0.240137221962915,0.23156980738091737,0.22649228428342502,0.22264911471189947,0.2182027336122278,0.21172160918120758,0.203796774149534,0.19530117545285688,0.18759731740594998,0.18210410143235267,0.17936344487684136,0.18044882469378945,0.1849875683747655,0.19191123917149852,0.19977842125951756,0.20655800941501332,0.21201904159912366,0.2156212283036589,0.21731518410004544,0.21745274108668244,0.21589708223712795,0.2142117668953821,0.21277532260766277,0.21165757234655447,0.21072149636476722,0.20911376077140142,0.20769764957382922,0.20638938462632608,0.20514245048766414,0.20399025164285198,0.20242783193128713,0.20157809219027117,0.20140110401371367,0.20168804552734143,0.20217443367861132,0.2020099013842779,0.20195678729859382,0.20185866347476597,0.20144872352582952,0.20035861571437066,0.19752064002094477,0.19336741348773523,0.0,0.0,0.0,0.0,0.0,0.0,0.0,0.0,0.0,0.0,0.0,0.0,0.0,0.0,0.0,0.0,0.0,0.0,0.0,0.0,0.0,0.0,0.0,0.0,0.0,0.0,0.0,0.0,0.0,0.0,0.0,0.0,0.0,0.0,0.0,0.0,0.0,0.0,0.0,0.0,0.0,0.0,0.0,0.0,0.0,0.0,0.0,0.0,0.0,0.0,0.0,0.0,0.0,0.0,0.0,0.0,0.0,0.0,0.0,0.0,0.0,0.0,0.0,0.0,0.0,0.0,0.0,0.0,0.0,0.0,0.0,0.0,0.0,0.0,0.0,0.0,0.0,0.0,0.0,0.0,0.0,0.0,0.0,0.0,0.0,0.0,0.0,0.0,0.0,0.0,0.0,0.0,0.0,0.0,0.0,0.0,0.0,0.0,0.0,0.0,0.0,0.0,0.0,0.0,0.0,0.0,0.0,0.0,0.0,0.0,0.0,0.0,0.0,0.0,0.0,0.0,0.0,0.0,0.0,0.0,0.0,0.0,0.0,0.0,0.0,0.0,0.0,0.0,0.0,0.0,0.0,0.0,0.0,0.0,0.0,0.0,0.0,0.0,0.0,0.0,0.0,0.0,0.0,0.0,0.0,0.0,0.0,0.0,0.0,0.0,0.0,0.0,0.0,0.0,0.0,0.0,0.0,0.0,0.0,0.0,0.0,0.0,0.0,0.0,0.0,0.0,0.0,0.0,0.0,0.0,0.0,0.0,0.0
0.6648212092669236,0.7094748511016054,0.7548260702681671,0.7973906397989959,0.8337078240427535,0.8614898330007892,0.8802634148382118,0.8913694556823425,0.8981006239099625,0.9042671041305662,0.9132055333026571,0.9266753160783334,0.9438953531134505,0.962229978671344,0.9768556079023912,0.9821539900343054,0.9730872173184552,0.9461658809677252,0.9013672944495467,0.8411109840006251,0.7702060217258279,0.6948553802309488,0.6211044022609776,0.554505566553613,0.49817489387929026,0.4527528262835671,0.4166235431434426,0.38639464406926627,0.3586417962630009,0.3300965866953823,0.29871184744904233,0.2640860733691851,0.22719320330996007,0.19079747896508975,0.15780831559827868,0.13083401860166702,0.1115486035949277,0.10005703892580146,0.09579155740291985,0.09673033216087011,0.10031111573033014,0.10408110691225134,0.10589395250451052,0.10549907649546841,0.10312673002478084,0.09973611706766926,0.09661361022957497,0.09445748788170606,0.09460652982902254,0.09706062277912154,0.10116119112210714,0.10587897319114718,0.10960406583876885,0.1124629966331952,0.11419021203443315,0.11493094282838616,0.11514433615271938,0.11471770023623976,0.11515609301345502,0.11662919063730362,0.1189217556965807,0.12158692503683219,0.12351943195118906,0.12534416949941135,0.12678913879356749,0.1276881847479805,0.12802951392094497,0.12739030697035808,0.12692991286427602,0.1266993365180018,0.12660292913915752,0.12651219199528488,0.12598041061407864,0.12568183557605192,0.12554420300914929,0.12539404919353264,0.12499487006962483,0.12389335094489601,0.12224199033410947,0.1198130840277615,0.11647390965337008,0.11230268517515896,0.10754250859893001,0.10307687486542218,0.0997115437704628,0.09829984990562769,0.0996105002806931,0.10413763571247187,0.11213355008306035,0.1232693644397184,0.13673450434442644,0.15135087828655194,0.16591984697972445,0.1791070876065573,0.18989128536058206,0.1978052253832188,0.2030912562924108,0.20700346446275364,0.21065880749365196,0.21526383014189307,0.22162131780342476,0.2298563918658976,0.23929258483430046,0.24860166141340476,0.2558839436466931,0.2591247951294046,0.2566215274393844,0.24700884500049386,0.23056294948444053,0.20829756501715607,0.18204594170672186,0.15410369650811798,0.12648418675151363,0.10146318029740799,0.08040796929612495,0.06386770216868648,0.05158586557685157,0.04240128589965869,0.035373416927746384,0.029309082163457244,0.023256991660614415,0.01666909716476237,0.009111491117567197,0.0012124964649210814,-0.0064087402935335885,-0.013078091018753095,-0.01824767124732682,0.0,0.0,0.0,0.0,0.0,0.0,0.0,0.0,0.0,0.0,0.0,0.0,0.0,0.0,0.0,0.0,0.0,0.0,0.0,0.0,0.0,0.0,0.0,0.0,0.0,0.0,0.0,0.0,0.0,0.0,0.0,0.0,0.0,0.0,0.0,0.0,0.0,0.0,0.0,0.0,0.0,0.0,0.0,0.0,0.0,0.0,0.0,0.0,0.0,0.0,0.0,0.0,0.0,0.0,0.0,0.0,0.0,0.0,0.0,0.0,0.0,0.0,0.0,0.0,0.0,0.0,0.0,0.0,0.0,0.0,0.0,0.0,0.0,0.0,0.0,0.0,0.0,0.0,0.0,0.0,0.0,0.0,0.0,0.0,0.0,0.0,0.0,0.0,0.0,0.0,0.0,0.0,0.0,0.0,0.0,0.0,0.0,0.0,0.0,0.0,0.0,0.0,0.0,0.0,0.0,0.0,0.0,0.0,0.0,0.0,0.0,0.0,0.0,0.0,0.0,0.0,0.0,0.0,0.0,0.0,0.0,0.0,0.0,0.0,0.0,0.0,0.0,0.0,0.0,0.0,0.0,0.0,0.0,0.0,0.0,0.0,0.0,0.0,0.0,0.0,0.0,0.0,0.0,0.0,0.0,0.0,0.0,0.0,0.0,0.0,0.0,0.0,0.0,0.0,0.0,0.0,0.0,0.0,0.0,0.0,0.0,0.0,0.0,0.0,0.0,0.0,0.0,0.0,0.0,0.0,0.0,0.0,0.0
-0.42197355990036733,-0.4227208631255989,-0.3948185849853962,-0.3381682452780473,-0.2569188727367971,-0.1582143219945035,-0.05112115794021233,0.053805591923706354,0.14864034658296005,0.22683296211218637,0.2844880262926498,0.3204785472451743,0.3352535536685187,0.3329692259076359,0.3184078024469229,0.2968363468404155,0.2732596453163781,0.2512289469735775,0.2342911075760184,0.22426991737146457,0.22171058594127716,0.22604074338758187,0.23554258332391495,0.24865498629879002,0.2635813808301601,0.2788131535673453,0.2933464906258303,0.30659884099125334,0.31897558305878987,0.3313141502131436,0.34479311742817015,0.3606522378640787,0.37981893659003624,0.40283354412449585,0.42953795131263184,0.459059193109995,0.489942034365157,0.5204712114483863,0.5490758753917699,0.5748418738492754,0.5978416176515814,0.6192318308662351,0.6410339832162438,0.6655540454426137,0.6946945038452446,0.7292089220596479,0.7682175332116266,0.8092693853805284,0.848358650180086,0.8813668011099502,0.9049004797522099,0.917203235557018,0.9188781140507487,0.9119670163544179,0.9003531363389266,0.8882141363021246,0.8787403787940167,0.8731639565966273,0.8702506402319982,0.8667363878602893,0.8581937797337054,0.8402775220310154,0.8097731515887563,0.7660721463342623,0.7106015549542241,0.6467906929338736,0.5792835140792496,0.5127827244978647,0.45163274374211915,0.39845455863424933,0.35418601309846887,0.3182895061274838,0.2891090697969504,0.26487014775332807,0.24356792360992666,0.2234975932959753,0.20340563002058482,0.1823517968583839,0.16023751012433102,0.1369996528604622,0.1128917152511579,0.0885217539136858,0.06465879031121183,0.04284347195852753,0.02425476277409406,0.00981618822526244,0.0,0.0,0.0,0.0,0.0,0.0,0.0,0.0,0.0,0.0,0.0,0.0,0.0,0.0,0.0,0.0,0.0,0.0,0.0,0.0,0.0,0.0,0.0,0.0,0.0,0.0,0.0,0.0,0.0,0.0,0.0,0.0,0.0,0.0,0.0,0.0,0.0,0.0,0.0,0.0,0.0,0.0,0.0,0.0,0.0,0.0,0.0,0.0,0.0,0.0,0.0,0.0,0.0,0.0,0.0,0.0,0.0,0.0,0.0,0.0,0.0,0.0,0.0,0.0,0.0,0.0,0.0,0.0,0.0,0.0,0.0,0.0,0.0,0.0,0.0,0.0,0.0,0.0,0.0,0.0,0.0,0.0,0.0,0.0,0.0,0.0,0.0,0.0,0.0,0.0,0.0,0.0,0.0,0.0,0.0,0.0,0.0,0.0,0.0,0.0,0.0,0.0,0.0,0.0,0.0,0.0,0.0,0.0,0.0,0.0,0.0,0.0,0.0,0.0,0.0,0.0,0.0,0.0,0.0,0.0,0.0,0.0,0.0,0.0,0.0,0.0,0.0,0.0,0.0,0.0,0.0,0.0,0.0,0.0,0.0,0.0,0.0,0.0,0.0,0.0,0.0,0.0,0.0,0.0,0.0,0.0,0.0,0.0,0.0,0.0,0.0,0.0,0.0,0.0,0.0,0.0,0.0,0.0,0.0,0.0,0.0,0.0,0.0,0.0,0.0,0.0,0.0,0.0,0.0,0.0,0.0,0.0,0.0,0.0,0.0,0.0,0.0,0.0,0.0,0.0,0.0,0.0,0.0,0.0,0.0,0.0,0.0,0.0,0.0,0.0,0.0,0.0,0.0,0.0,0.0,0.0,0.0,0.0,0.0,0.0,0.0,0.0,0.0,0.0,0.0,0.0,0.0,0.0,0.0,0.0,0.0,0.0,0.0,0.0
0.2891090697969504,0.26487014775332807,0.24356792360992666,0.2234975932959753,0.20340563002058482,0.1823517968583839,0.16023751012433102,0.1369996528604622,0.1128917152511579,0.0885217539136858,0.06465879031121183,0.04284347195852753,0.02425476277409406,0.00981618822526244,0.0,0.0,0.0,0.0,0.0,0.0,0.0,0.0,0.0,0.0,0.0,0.0,0.0,0.0,0.0,0.0,0.0,0.0,0.0,0.0,0.0,0.0,0.0,0.0,0.0,0.0,0.0,0.0,0.0,0.0,0.0,0.0,0.0,0.0,0.0,0.0,0.0,0.0,0.0,0.0,0.0,0.0,0.0,0.0,0.0,0.0,0.0,0.0,0.0,0.0,0.0,0.0,0.0,0.0,0.0,0.0,0.0,0.0,0.0,0.0,0.0,0.0,0.0,0.0,0.0,0.0,0.0,0.0,0.0,0.0,0.0,0.0,0.0,0.0,0.0,0.0,0.0,0.0,0.0,0.0,0.0,0.0,0.0,0.0,0.0,0.0,0.0,0.0,0.0,0.0,0.0,0.0,0.0,0.0,0.0,0.0,0.0,0.0,0.0,0.0,0.0,0.0,0.0,0.0,0.0,0.0,0.0,0.0,0.0,0.0,0.0,0.0,0.0,0.0,0.0,0.0,0.0,0.0,0.0,0.0,0.0,0.0,0.0,0.0,0.0,0.0,0.0,0.0,0.0,0.0,0.0,0.0,0.0,0.0,0.0,0.0,0.0,0.0,0.0,0.0,0.0,0.0,0.0,0.0,0.0,0.0,0.0,0.0,0.0,0.0,0.0,0.0,0.0,0.0,0.0,0.0,0.0,0.0,0.0,0.0,0.0,0.0,0.0,0.0,0.0,0.0,0.0,0.0,0.0,0.0,0.0,0.0,0.0,0.0,0.0,0.0,0.0,0.0,0.0,0.0,0.0,0.0,0.0,0.0,0.0,0.0,0.0,0.0,0.0,0.0,0.0,0.0,0.0,0.0,0.0,0.0,0.0,0.0,0.0,0.0,0.0,0.0,0.0,0.0,0.0,0.0,0.0,0.0,0.0,0.0,0.0,0.0,0.0,0.0,0.0,0.0,0.0,0.0,0.0,0.0,0.0,0.0,0.0,0.0,0.0,0.0,0.0,0.0,0.0,0.0,0.0,0.0,0.0,0.0,0.0,0.0,0.0,0.0,0.0,0.0,0.0,0.0,0.0,0.0,0.0,0.0,0.0,0.0,0.0,0.0,0.0,0.0,0.0,0.0,0.0,0.0,0.0,0.0,0.0,0.0,0.0,0.0,0.0,0.0,0.0,0.0,0.0,0.0,0.0,0.0,0.0,0.0,0.0,0.0,0.0,0.0,0.0,0.0,0.0,0.0,0.0,0.0,0.0,0.0,0.0,0.0
0.08944842077823205,0.14499907925834757,0.19620272835140884,0.23770047125737334,0.264838614497062,0.2742198547898181,0.2635320434285289,0.23360693620357742,0.1870584739843989,0.128406555269447,0.06354836896052228,-0.0017334141763453558,-0.06031055737890953,-0.10643087176895452,-0.1359950064562132,-0.14712311686877352,-0.14127975133644685,-0.1202522109904512,-0.08791591052560573,-0.0488625831511745,-0.007662848775218574,0.030953815397953454,0.06492989148485595,0.09300278980987114,0.11506876417172211,0.13179741931833636,0.14352252664245935,0.15194401065944702,0.15824992925648054,0.16345814618293097,0.16838152934008493,0.17321515456519632,0.17882916596845239,0.18576374339060317,0.194422005178085,0.20496563936183354,0.21706120597114043,0.23036033656414112,0.24424686892300998,0.2580546228703325,0.27125183308308076,0.2835192238536034,0.2951984130247927,0.30717558069920975,0.3207853358267415,0.337538026804328,0.358694894664633,0.38499892506920186,0.4163925095610913,0.4518535276594554,0.4894988064967444,0.5268028265271815,0.5616274971145184,0.5923863674773013,0.6186738088565835,0.6414595861891608,0.6626494393453283,0.6853190490798777,0.7119508452324015,0.7438891046110122,0.7807272369726553,0.8199954664013769,0.8579238716829028,0.8898727021039462,0.9115332100072653,0.9199948877561498,0.914465898575179,0.8964912268409065,0.8696891363584459,0.8387193018639864,0.8080528440757725,0.7807126111899668,0.7578273022551251,0.7382313242409779,0.7189523461276708,0.6961108003953951,0.6658498644969519,0.6259859114934483,0.5760938826058648,0.5178878706662164,0.45488794941737415,0.3914294713931767,0.33248671366003535,0.2819533652984823,0.24218282342478586,0.21366509843935316,0.0,0.0,0.0,0.0,0.0,0.0,0.0,0.0,0.0,0.0,0.0,0.0,0.0,0.0,0.0,0.0,0.0,0.0,0.0,0.0,0.0,0.0,0.0,0.0,0.0,0.0,0.0,0.0,0.0,0.0,0.0,0.0,0.0,0.0,0.0,0.0,0.0,0.0,0.0,0.0,0.0,0.0,0.0,0.0,0.0,0.0,0.0,0.0,0.0,0.0,0.0,0.0,0.0,0.0,0.0,0.0,0.0,0.0,0.0,0.0,0.0,0.0,0.0,0.0,0.0,0.0,0.0,0.0,0.0,0.0,0.0,0.0,0.0,0.0,0.0,0.0,0.0,0.0,0.0,0.0,0.0,0.0,0.0,0.0,0.0,0.0,0.0,0.0,0.0,0.0,0.0,0.0,0.0,0.0,0.0,0.0,0.0,0.0,0.0,0.0,0.0,0.0,0.0,0.0,0.0,0.0,0.0,0.0,0.0,0.0,0.0,0.0,0.0,0.0,0.0,0.0,0.0,0.0,0.0,0.0,0.0,0.0,0.0,0.0,0.0,0.0,0.0,0.0,0.0,0.0,0.0,0.0,0.0,0.0,0.0,0.0,0.0,0.0,0.0,0.0,0.0,0.0,0.0,0.0,0.0,0.0,0.0,0.0,0.0,0.0,0.0,0.0,0.0,0.0,0.0,0.0,0.0,0.0,0.0,0.0,0.0,0.0,0.0,0.0,0.0,0.0,0.0,0.0,0.0,0.0,0.0,0.0,0.0,0.0,0.0,0.0,0.0,0.0,0.0,0.0,0.0,0.0,0.0,0.0,0.0,0.0,0.0,0.0,0.0,0.0,0.0,0.0,0.0,0.0,0.0,0.0,0.0,0.0,0.0,0.0,0.0,0.0,0.0,0.0,0.0,0.0,0.0,0.0,0.0,0.0,0.0,0.0,0.0,0.0
0.6626494393453283,0.6853190490798777,0.7119508452324015,0.7438891046110122,0.7807272369726553,0.8199954664013769,0.8579238716829028,0.8898727021039462,0.9115332100072653,0.9199948877561498,0.914465898575179,0.8964912268409065,0.8696891363584459,0.8387193018639864,0.8080528440757725,0.7807126111899668,0.7578273022551251,0.7382313242409779,0.7189523461276708,0.6961108003953951,0.6658498644969519,0.6259859114934483,0.5760938826058648,0.5178878706662164,0.45488794941737415,0.3914294713931767,0.33248671366003535,0.2819533652984823,0.24218282342478586,0.21366509843935316,0.19482959537762848,0.1834670736753235,0.1764678913230906,0.17085918768471053,0.16442345163884325,0.15570306762126984,0.14521098484953068,0.13398803046340277,0.12351344727799812,0.11518180483833333,0.10944432362836867,0.10694443808080846,0.10710779268936121,0.10882778286560717,0.1108426722504449,0.11170230582965857,0.11146996432190855,0.11017881441877735,0.10829265484485695,0.10650353966255648,0.10505790523553203,0.10501828589515716,0.1063131192655361,0.1084561817909903,0.11078329285814659,0.1122681138245181,0.11339451417096531,0.11410620092215658,0.11455883537578992,0.1150630460537367,0.1154681804963815,0.11687788854161736,0.11914883351746636,0.12183573816858191,0.12441644528920248,0.12609910239193997,0.12760637165948446,0.12911082133255622,0.1309885128837452,0.13376984452466825,0.13764506861616824,0.1436779956426251,0.15183839611586528,0.16163192719959502,0.17222924414916158,0.18220458819789281,0.19134940502888506,0.19916006325274369,0.20551213194872775,0.2106886437736549,0.21472340713634003,0.21900629201774377,0.2244495003066429,0.2316587636439358,0.24067933371945197,0.2503795549873144,0.0,0.0,0.0,0.0,0.0,0.0,0.0,0.0,0.0,0.0,0.0,0.0,0.0,0.0,0.0,0.0,0.0,0.0,0.0,0.0,0.0,0.0,0.0,0.0,0.0,0.0,0.0,0.0,0.0,0.0,0.0,0.0,0.0,0.0,0.0,0.0,0.0,0.0,0.0,0.0,0.0,0.0,0.0,0.0,0.0,0.0,0.0,0.0,0.0,0.0,0.0,0.0,0.0,0.0,0.0,0.0,0.0,0.0,0.0,0.0,0.0,0.0,0.0,0.0,0.0,0.0,0.0,0.0,0.0,0.0,0.0,0.0,0.0,0.0,0.0,0.0,0.0,0.0,0.0,0.0,0.0,0.0,0.0,0.0,0.0,0.0,0.0,0.0,0.0,0.0,0.0,0.0,0.0,0.0,0.0,0.0,0.0,0.0,0.0,0.0,0.0,0.0,0.0,0.0,0.0,0.0,0.0,0.0,0.0,0.0,0.0,0.0,0.0,0.0,0.0,0.0,0.0,0.0,0.0,0.0,0.0,0.0,0.0,0.0,0.0,0.0,0.0,0.0,0.0,0.0,0.0,0.0,0.0,0.0,0.0,0.0,0.0,0.0,0.0,0.0,0.0,0.0,0.0,0.0,0.0,0.0,0.0,0.0,0.0,0.0,0.0,0.0,0.0,0.0,0.0,0.0,0.0,0.0,0.0,0.0,0.0,0.0,0.0,0.0,0.0,0.0,0.0,0.0,0.0,0.0,0.0,0.0,0.0,0.0,0.0,0.0,0.0,0.0,0.0,0.0,0.0,0.0,0.0,0.0,0.0,0.0,0.0,0.0,0.0,0.0,0.0,0.0,0.0,0.0,0.0,0.0,0.0,0.0,0.0,0.0,0.0,0.0,0.0,0.0,0.0,0.0,0.0,0.0,0.0,0.0,0.0,0.0,0.0,0.0
0.4947999040858437,0.5170605611699483,0.5212033394075711,0.5102491316278959,0.48825126042324,0.46008479136288977,0.4305380333241975,0.4026423644053208,0.37970395644744875,0.36280543897265827,0.35147749552458096,0.3440155054784467,0.3371276043900151,0.32930911937814633,0.31905988086092946,0.30590977589120955,0.29047589588335926,0.27361198100352946,0.25791947451219094,0.2455750715311497,0.23829067150422523,0.23693628628827174,0.2410123632528281,0.24986634801140434,0.2620240895028673,0.2758209528757591,0.289757882095173,0.30252886802817336,0.3138752178424568,0.32394674547096436,0.33328954557789453,0.34257947790207427,0.35224260615684916,0.36258276184055216,0.3734490766966767,0.38438444297176744,0.39483546048595297,0.4043511294785159,0.41315337202780145,0.42210135651826053,0.4327458825425479,0.4470914430698316,0.4670732960362844,0.4942342207815164,0.5290083884709839,0.570416383730962,0.6160252229343143,0.6620608384697872,0.7048630885185712,0.7408684204357109,0.7677425652501619,0.7849590027987969,0.7935496718526905,0.797034820406564,0.7990177388455338,0.8027010539783361,0.8099475104838662,0.8203165216916342,0.8321360121865505,0.8415531531096051,0.8439146211552556,0.8349360181689355,0.8114931786613295,0.773434701748402,0.7226051099546156,0.6628835363483822,0.5993720487390055,0.5370463986537929,0.4806551338413594,0.4328847873394613,0.3943610694226801,0.3638080793090755,0.33836822655099164,0.31526185326506,0.29172796317670696,0.26599437095210615,0.2376464881036749,0.20728499676060566,0.17728081303286297,0.15002626532126767,0.1276530343370374,0.11148489689827434,0.10130889224002095,0.09673739665261122,0.09606728634875666,0.09721443903915442,0.0,0.0,0.0,0.0,0.0,0.0,0.0,0.0,0.0,0.0,0.0,0.0,0.0,0.0,0.0,0.0,0.0,0.0,0.0,0.0,0.0,0.0,0.0,0.0,0.0,0.0,0.0,0.0,0.0,0.0,0.0,0.0,0.0,0.0,0.0,0.0,0.0,0.0,0.0,0.0,0.0,0.0,0.0,0.0,0.0,0.0,0.0,0.0,0.0,0.0,0.0,0.0,0.0,0.0,0.0,0.0,0.0,0.0,0.0,0.0,0.0,0.0,0.0,0.0,0.0,0.0,0.0,0.0,0.0,0.0,0.0,0.0,0.0,0.0,0.0,0.0,0.0,0.0,0.0,0.0,0.0,0.0,0.0,0.0,0.0,0.0,0.0,0.0,0.0,0.0,0.0,0.0,0.0,0.0,0.0,0.0,0.0,0.0,0.0,0.0,0.0,0.0,0.0,0.0,0.0,0.0,0.0,0.0,0.0,0.0,0.0,0.0,0.0,0.0,0.0,0.0,0.0,0.0,0.0,0.0,0.0,0.0,0.0,0.0,0.0,0.0,0.0,0.0,0.0,0.0,0.0,0.0,0.0,0.0,0.0,0.0,0.0,0.0,0.0,0.0,0.0,0.0,0.0,0.0,0.0,0.0,0.0,0.0,0.0,0.0,0.0,0.0,0.0,0.0,0.0,0.0,0.0,0.0,0.0,0.0,0.0,0.0,0.0,0.0,0.0,0.0,0.0,0.0,0.0,0.0,0.0,0.0,0.0,0.0,0.0,0.0,0.0,0.0,0.0,0.0,0.0,0.0,0.0,0.0,0.0,0.0,0.0,0.0,0.0,0.0,0.0,0.0,0.0,0.0,0.0,0.0,0.0,0.0,0.0,0.0,0.0,0.0,0.0,0.0,0.0,0.0,0.0,0.0,0.0,0.0,0.0,0.0,0.0,0.0
0.33836822655099164,0.31526185326506,0.29172796317670696,0.26599437095210615,0.2376464881036749,0.20728499676060566,0.17728081303286297,0.15002626532126767,0.1276530343370374,0.11148489689827434,0.10130889224002095,0.09673739665261122,0.09606728634875666,0.09721443903915442,0.0982647330250559,0.09749833767617938,0.09507376135838003,0.09147075634044824,0.08772650976221304,0.08504456915183746,0.0839370123130715,0.0854342556843318,0.08933244865211737,0.09484489688379917,0.10089400704668411,0.10599229854316576,0.11016541475992721,0.11317915794804402,0.11520900656707318,0.11674344494153077,0.11791149401069116,0.12003051621919068,0.1232516813346155,0.12733739673578326,0.13181729079642424,0.1357279303507207,0.13946782315317352,0.1427042254418372,0.1452069741353542,0.1468911366513177,0.14737058416910473,0.14753323631622844,0.14733768566323355,0.1466451777328586,0.14537475691781418,0.14331094459378232,0.1414625142557964,0.1404384191308687,0.14097616443480132,0.14385837718431066,0.14951350620113496,0.15874939028786145,0.17149813037983216,0.18711768555417016,0.20444343018648165,0.2219812046774507,0.23816092349086032,0.25138044955135364,0.2604798378227197,0.26502848318865263,0.26576655509386643,0.2636021490510011,0.2598838153535844,0.2559335291324127,0.2527180025763957,0.2506703146606524,0.24950200054218105,0.2482730475171952,0.24568068662013937,0.24040752196413884,0.23124936404240534,0.21805462820324964,0.20121661914838843,0.18177006793761977,0.16115749665333184,0.14065440730781453,0.12184923267319876,0.10567088452117963,0.09245030665384156,0.08190747134252485,0.07297616180568023,0.06494343445620222,0.05688492440327643,0.048134614268736456,0.038437786601993484,0.027650001079786313,0.0,0.0,0.0,0.0,0.0,0.0,0.0,0.0,0.0,0.0,0.0,0.0,0.0,0.0,0.0,0.0,0.0,0.0,0.0,0.0,0.0,0.0,0.0,0.0,0.0,0.0,0.0,0.0,0.0,0.0,0.0,0.0,0.0,0.0,0.0,0.0,0.0,0.0,0.0,0.0,0.0,0.0,0.0,0.0,0.0,0.0,0.0,0.0,0.0,0.0,0.0,0.0,0.0,0.0,0.0,0.0,0.0,0.0,0.0,0.0,0.0,0.0,0.0,0.0,0.0,0.0,0.0,0.0,0.0,0.0,0.0,0.0,0.0,0.0,0.0,0.0,0.0,0.0,0.0,0.0,0.0,0.0,0.0,0.0,0.0,0.0,0.0,0.0,0.0,0.0,0.0,0.0,0.0,0.0,0.0,0.0,0.0,0.0,0.0,0.0,0.0,0.0,0.0,0.0,0.0,0.0,0.0,0.0,0.0,0.0,0.0,0.0,0.0,0.0,0.0,0.0,0.0,0.0,0.0,0.0,0.0,0.0,0.0,0.0,0.0,0.0,0.0,0.0,0.0,0.0,0.0,0.0,0.0,0.0,0.0,0.0,0.0,0.0,0.0,0.0,0.0,0.0,0.0,0.0,0.0,0.0,0.0,0.0,0.0,0.0,0.0,0.0,0.0,0.0,0.0,0.0,0.0,0.0,0.0,0.0,0.0,0.0,0.0,0.0,0.0,0.0,0.0,0.0,0.0,0.0,0.0,0.0,0.0,0.0,0.0,0.0,0.0,0.0,0.0,0.0,0.0,0.0,0.0,0.0,0.0,0.0,0.0,0.0,0.0,0.0,0.0,0.0,0.0,0.0,0.0,0.0,0.0,0.0,0.0,0.0,0.0,0.0,0.0,0.0,0.0,0.0,0.0,0.0,0.0,0.0,0.0,0.0,0.0,0.0
-0.4180083433282605,-0.4258904551145496,-0.40573947744287775,-0.3585473097750696,-0.28930238483208603,-0.20538556893773383,-0.11534088323636757,-0.028451126575842527,0.04923140528567069,0.1132786154541787,0.1618046412368404,0.19520868864181445,0.21474896749447325,0.22434705088924609,0.2276727998086703,0.22814241847621017,0.22847818507239312,0.22995361494343147,0.23399523798720473,0.24088872529303226,0.2503556811494859,0.2617476815029718,0.2740026616716203,0.2865207663474158,0.2986704385513416,0.3100642057307421,0.3206178139921497,0.33042232536054356,0.3402133877811384,0.35091667667643156,0.3636404398848821,0.3794879464813276,0.3992391865151994,0.423346868806733,0.45157102314845604,0.48294858391139733,0.5158961756508303,0.5484085432149625,0.5788374013415237,0.6061134297254825,0.6302164272273728,0.6523044048203331,0.6743668129188342,0.6990623736862546,0.7285458949066349,0.7637865839000731,0.804005135673581,0.8465459353810874,0.8872202594904968,0.9214149948568743,0.9450727847115151,0.955705866526829,0.9531656253030257,0.9391973036488555,0.9177634053563639,0.8936156129571837,0.8709547326208728,0.8521841638080748,0.8373646169849474,0.8242186050615231,0.8087235202833031,0.7862035987149166,0.7523537310004492,0.7051743488800232,0.644827612616516,0.5740013191501494,0.4974189182899802,0.42064253169996463,0.349757829390557,0.2893904713077006,0.24221334067997158,0.20863423786504373,0.18672055547581226,0.1736641859362842,0.16567537245339548,0.15918445030671607,0.1515790435289556,0.14127010080183106,0.12890802063824683,0.11580562228048105,0.1037793901080417,0.09452384919286747,0.08863616046656715,0.08682555825485834,0.08837005220930343,0.09189520544053935,0.0,0.0,0.0,0.0,0.0,0.0,0.0,0.0,0.0,0.0,0.0,0.0,0.0,0.0,0.0,0.0,0.0,0.0,0.0,0.0,0.0,0.0,0.0,0.0,0.0,0.0,0.0,0.0,0.0,0.0,0.0,0.0,0.0,0.0,0.0,0.0,0.0,0.0,0.0,0.0,0.0,0.0,0.0,0.0,0.0,0.0,0.0,0.0,0.0,0.0,0.0,0.0,0.0,0.0,0.0,0.0,0.0,0.0,0.0,0.0,0.0,0.0,0.0,0.0,0.0,0.0,0.0,0.0,0.0,0.0,0.0,0.0,0.0,0.0,0.0,0.0,0.0,0.0,0.0,0.0,0.0,0.0,0.0,0.0,0.0,0.0,0.0,0.0,0.0,0.0,0.0,0.0,0.0,0.0,0.0,0.0,0.0,0.0,0.0,0.0,0.0,0.0,0.0,0.0,0.0,0.0,0.0,0.0,0.0,0.0,0.0,0.0,0.0,0.0,0.0,0.0,0.0,0.0,0.0,0.0,0.0,0.0,0.0,0.0,0.0,0.0,0.0,0.0,0.0,0.0,0.0,0.0,0.0,0.0,0.0,0.0,0.0,0.0,0.0,0.0,0.0,0.0,0.0,0.0,0.0,0.0,0.0,0.0,0.0,0.0,0.0,0.0,0.0,0.0,0.0,0.0,0.0,0.0,0.0,0.0,0.0,0.0,0.0,0.0,0.0,0.0,0.0,0.0,0.0,0.0,0.0,0.0,0.0,0.0,0.0,0.0,0.0,0.0,0.0,0.0,0.0,0.0,0.0,0.0,0.0,0.0,0.0,0.0,0.0,0.0,0.0,0.0,0.0,0.0,0.0,0.0,0.0,0.0,0.0,0.0,0.0,0.0,0.0,0.0,0.0,0.0,0.0,0.0,0.0,0.0,0.0,0.0,0.0,0.0
0.20863423786504373,0.18672055547581226,0.1736641859362842,0.16567537245339548,0.15918445030671607,0.1515790435289556,0.14127010080183106,0.12890802063824683,0.11580562228048105,0.1037793901080417,0.09452384919286747,0.08863616046656715,0.08682555825485834,0.08837005220930343,0.09189520544053935,0.09582814101589807,0.0983727621792688,0.09950307226578115,0.09924320278476828,0.09816567538516913,0.09713243283892864,0.09643767737050979,0.09734761415958074,0.09984660601471268,0.10341584775903344,0.10728453121714637,0.11022313177872242,0.11265291910116573,0.11447706853710297,0.11591241172211068,0.11743662959536408,0.11913827780794725,0.12241300889150696,0.12732387627535258,0.13350065055999982,0.14030635981055056,0.14659267045163457,0.15256151784431973,0.15761563957058736,0.16125703061149502,0.1631760900257371,0.1628870433031592,0.1612106194123621,0.15822973372718052,0.154052682735873,0.1489286877272399,0.14295463217341597,0.1375069687602953,0.1335990879279205,0.1323185882806809,0.13468128542874272,0.1410442704147289,0.15218525352464776,0.16795037174900213,0.18752105095912583,0.20943168937957393,0.2316023992597192,0.25199354706351157,0.26849959777944715,0.2794977193679379,0.2841820933304051,0.28291844716478476,0.2767061066767341,0.26719050775434844,0.2562402286151919,0.2455294370144409,0.23615205223061891,0.22848440300662462,0.22196039814380553,0.21530632721523263,0.20687678069847673,0.19486533091583885,0.17841333412210944,0.15729768801945224,0.13224007470506718,0.1048135511213661,0.07687462822398522,0.05101049114395102,0.029294358133036925,0.013086015563650303,0.002750321544255435,-0.0027457737650846375,-0.004602972077278917,-0.004733920680227836,-0.005010342160398534,-0.006774386857974365,0.0,0.0,0.0,0.0,0.0,0.0,0.0,0.0,0.0,0.0,0.0,0.0,0.0,0.0,0.0,0.0,0.0,0.0,0.0,0.0,0.0,0.0,0.0,0.0,0.0,0.0,0.0,0.0,0.0,0.0,0.0,0.0,0.0,0.0,0.0,0.0,0.0,0.0,0.0,0.0,0.0,0.0,0.0,0.0,0.0,0.0,0.0,0.0,0.0,0.0,0.0,0.0,0.0,0.0,0.0,0.0,0.0,0.0,0.0,0.0,0.0,0.0,0.0,0.0,0.0,0.0,0.0,0.0,0.0,0.0,0.0,0.0,0.0,0.0,0.0,0.0,0.0,0.0,0.0,0.0,0.0,0.0,0.0,0.0,0.0,0.0,0.0,0.0,0.0,0.0,0.0,0.0,0.0,0.0,0.0,0.0,0.0,0.0,0.0,0.0,0.0,0.0,0.0,0.0,0.0,0.0,0.0,0.0,0.0,0.0,0.0,0.0,0.0,0.0,0.0,0.0,0.0,0.0,0.0,0.0,0.0,0.0,0.0,0.0,0.0,0.0,0.0,0.0,0.0,0.0,0.0,0.0,0.0,0.0,0.0,0.0,0.0,0.0,0.0,0.0,0.0,0.0,0.0,0.0,0.0,0.0,0.0,0.0,0.0,0.0,0.0,0.0,0.0,0.0,0.0,0.0,0.0,0.0,0.0,0.0,0.0,0.0,0.0,0.0,0.0,0.0,0.0,0.0,0.0,0.0,0.0,0.0,0.0,0.0,0.0,0.0,0.0,0.0,0.0,0.0,0.0,0.0,0.0,0.0,0.0,0.0,0.0,0.0,0.0,0.0,0.0,0.0,0.0,0.0,0.0,0.0,0.0,0.0,0.0,0.0,0.0,0.0,0.0,0.0,0.0,0.0,0.0,0.0,0.0,0.0,0.0,0.0,0.0,0.0
-0.20098786221606604,-0.2424671262494106,-0.2575005834311702,-0.24717343303301104,-0.21371868069291403,-0.1625733614061229,-0.10059258785550065,-0.03490569986776687,0.027247111873068497,0.08203336985754484,0.1270546545162462,0.16190284613419545,0.18768918369563647,0.20564940579372326,0.21877877875830995,0.22936853566115573,0.23921405639036072,0.2494616915092627,0.26017119214715384,0.27182765705670375,0.28435346758342367,0.2975630956090215,0.3112341993228889,0.32496326172348067,0.33864108183698777,0.35208015706559226,0.36511821825323193,0.37766031458701493,0.3896620035941064,0.4015017833067813,0.41384167635189767,0.4276547175650332,0.4440864298511409,0.46417838188506166,0.4886323694181477,0.5174810996132864,0.5499229154302969,0.5843606827959767,0.6185656493484654,0.6506269239884168,0.6790407307806444,0.7033977905621275,0.7246349357408125,0.7446599800591709,0.7666026403139333,0.7929841445936192,0.8251573976418363,0.8626427261611245,0.9028869004511709,0.9416661870610067,0.9738519830297979,0.9946219311010208,1.0006505165814363,0.9911032646764013,0.9674002387915558,0.9334658597101229,0.894465567972855,0.8554572465822471,0.8201294218902638,0.7898744259356075,0.7636640998841902,0.7384751596978175,0.7102639765830581,0.6750764495367781,0.6305262828670506,0.5760381456423436,0.5132271155917255,0.4455654120642426,0.37749294929553245,0.313938056638673,0.25873826555319346,0.21420845687007553,0.18086684754542717,0.1573897897035496,0.14165947624943961,0.13058760518754983,0.12111046205632936,0.11082577216001385,0.09822828314437738,0.08361179224759956,0.06797032062413143,0.05302701183422335,0.040784696774600546,0.03278815976825633,0.030536758550024013,0.034021860703180515,0.0,0.0,0.0,0.0,0.0,0.0,0.0,0.0,0.0,0.0,0.0,0.0,0.0,0.0,0.0,0.0,0.0,0.0,0.0,0.0,0.0,0.0,0.0,0.0,0.0,0.0,0.0,0.0,0.0,0.0,0.0,0.0,0.0,0.0,0.0,0.0,0.0,0.0,0.0,0.0,0.0,0.0,0.0,0.0,0.0,0.0,0.0,0.0,0.0,0.0,0.0,0.0,0.0,0.0,0.0,0.0,0.0,0.0,0.0,0.0,0.0,0.0,0.0,0.0,0.0,0.0,0.0,0.0,0.0,0.0,0.0,0.0,0.0,0.0,0.0,0.0,0.0,0.0,0.0,0.0,0.0,0.0,0.0,0.0,0.0,0.0,0.0,0.0,0.0,0.0,0.0,0.0,0.0,0.0,0.0,0.0,0.0,0.0,0.0,0.0,0.0,0.0,0.0,0.0,0.0,0.0,0.0,0.0,0.0,0.0,0.0,0.0,0.0,0.0,0.0,0.0,0.0,0.0,0.0,0.0,0.0,0.0,0.0,0.0,0.0,0.0,0.0,0.0,0.0,0.0,0.0,0.0,0.0,0.0,0.0,0.0,0.0,0.0,0.0,0.0,0.0,0.0,0.0,0.0,0.0,0.0,0.0,0.0,0.0,0.0,0.0,0.0,0.0,0.0,0.0,0.0,0.0,0.0,0.0,0.0,0.0,0.0,0.0,0.0,0.0,0.0,0.0,0.0,0.0,0.0,0.0,0.0,0.0,0.0,0.0,0.0,0.0,0.0,0.0,0.0,0.0,0.0,0.0,0.0,0.0,0.0,0.0,0.0,0.0,0.0,0.0,0.0,0.0,0.0,0.0,0.0,0.0,0.0,0.0,0.0,0.0,0.0,0.0,0.0,0.0,0.0,0.0,0.0,0.0,0.0,0.0,0.0,0.0,0.0
0.21420845687007553,0.18086684754542717,0.1573897897035496,0.14165947624943961,0.13058760518754983,0.12111046205632936,0.11082577216001385,0.09822828314437738,0.08361179224759956,0.06797032062413143,0.05302701183422335,0.040784696774600546,0.03278815976825633,0.030536758550024013,0.034021860703180515,0.04209002581195356,0.052670734438291886,0.06290144863089318,0.070809890158136,0.07432141304297471,0.07224819652262568,0.06455677210198323,0.05198233476575468,0.037173685946090745,0.02234614310068808,0.009486299517735514,0.0,0.0,0.0,0.0,0.0,0.0,0.0,0.0,0.0,0.0,0.0,0.0,0.0,0.0,0.0,0.0,0.0,0.0,0.0,0.0,0.0,0.0,0.0,0.0,0.0,0.0,0.0,0.0,0.0,0.0,0.0,0.0,0.0,0.0,0.0,0.0,0.0,0.0,0.0,0.0,0.0,0.0,0.0,0.0,0.0,0.0,0.0,0.0,0.0,0.0,0.0,0.0,0.0,0.0,0.0,0.0,0.0,0.0,0.0,0.0,0.0,0.0,0.0,0.0,0.0,0.0,0.0,0.0,0.0,0.0,0.0,0.0,0.0,0.0,0.0,0.0,0.0,0.0,0.0,0.0,0.0,0.0,0.0,0.0,0.0,0.0,0.0,0.0,0.0,0.0,0.0,0.0,0.0,0.0,0.0,0.0,0.0,0.0,0.0,0.0,0.0,0.0,0.0,0.0,0.0,0.0,0.0,0.0,0.0,0.0,0.0,0.0,0.0,0.0,0.0,0.0,0.0,0.0,0.0,0.0,0.0,0.0,0.0,0.0,0.0,0.0,0.0,0.0,0.0,0.0,0.0,0.0,0.0,0.0,0.0,0.0,0.0,0.0,0.0,0.0,0.0,0.0,0.0,0.0,0.0,0.0,0.0,0.0,0.0,0.0,0.0,0.0,0.0,0.0,0.0,0.0,0.0,0.0,0.0,0.0,0.0,0.0,0.0,0.0,0.0,0.0,0.0,0.0,0.0,0.0,0.0,0.0,0.0,0.0,0.0,0.0,0.0,0.0,0.0,0.0,0.0,0.0,0.0,0.0,0.0,0.0,0.0,0.0,0.0,0.0,0.0,0.0,0.0,0.0,0.0,0.0,0.0,0.0,0.0,0.0,0.0,0.0,0.0,0.0,0.0,0.0,0.0,0.0,0.0,0.0,0.0,0.0,0.0,0.0,0.0,0.0,0.0,0.0,0.0,0.0,0.0,0.0,0.0,0.0,0.0,0.0,0.0,0.0,0.0,0.0,0.0,0.0,0.0,0.0,0.0,0.0,0.0,0.0,0.0,0.0,0.0,0.0,0.0,0.0,0.0,0.0,0.0,0.0,0.0,0.0,0.0,0.0,0.0,0.0,0.0,0.0,0.0,0.0,0.0,0.0,0.0,0.0,0.0,0.0,0.0,0.0,0.0,0.0,0.0,0.0,0.0,0.0,0.0,0.0
0.5707028939015922,0.6783850230276773,0.7669698248806012,0.828458873209155,0.8582136380010881,0.8547693261811102,0.8222729591927467,0.7675167007428976,0.6992933503045726,0.6268229622711936,0.557377071757417,0.49770560585960383,0.4510411260991761,0.4176786753504598,0.3954322865412992,0.3796307788614356,0.3669459585730206,0.35399561494304976,0.338753403417527,0.3208179255521925,0.3006037380006553,0.28078592691714427,0.2638660695442217,0.2519512222937091,0.2462035645630858,0.246201137237606,0.2512022531894031,0.2594636451677309,0.26903207355584235,0.2782412334308049,0.2858497054898117,0.291944341824204,0.2972195304079659,0.3028884050890122,0.310278902298524,0.32032728870698096,0.3335437419863244,0.34960748024546645,0.36753687993522977,0.3859789065777734,0.4035498900208921,0.41950575126334844,0.4338180998192582,0.4473478090048569,0.4616789108570228,0.47864733508208007,0.4999826751276663,0.5265440536746208,0.5579969979946012,0.5927257343907666,0.6278287879786404,0.6607155356132991,0.6885996994939926,0.7097007964743021,0.7237725579245103,0.7317139349770466,0.7370076158771798,0.7426225354697115,0.7509477563107355,0.7630358658434053,0.777782199838571,0.7932533003453457,0.8054450510227064,0.8097928764982429,0.8022991737623003,0.7803175936116231,0.7440641684783424,0.695630945230488,0.6389532985754037,0.5789874304040665,0.5204677093272465,0.4676681626728655,0.4227755944106489,0.3859697003126924,0.35567568704583286,0.3290175869294943,0.303282041221624,0.27598001676735245,0.24572808732028723,0.2125520147447184,0.17730754275684266,0.14288408041659328,0.11203050281825458,0.08709694234849061,0.06942834244360396,0.05819981046049702,0.053039593759617504,0.05206850061768575,0.053084831138533004,0.054104067107748836,0.0528700799380488,0.049899524796529066,0.04581072736492556,0.041725222797313714,0.03877979177189371,0.03669906636783632,0.036649225324602394,0.03836981263800597,0.04119771522736386,0.044340665908146455,0.04629942921359367,0.04772095676792234,0.04867599994520947,0.049359318381152796,0.049901540044399215,0.049541142916777386,0.04891219034642927,0.04760770524194426,0.045273353070000355,0.04189010525620011,0.037326486854157334,0.03338924983803205,0.031113783830423992,0.031234513185058193,0.03387867046800102,0.03787272419915309,0.042711646482484,0.0465765233190965,0.04776055203148598,0.04541448018139838,0.03977467426174645,0.03383603519910415,0.031499743190618705,0.03758668396004737,0.05695028989479573,0.09317268809098192,0.14844520249177282,0.22182217550922131,0.30942755232560104,0.40491763798334635,0.5003087406918166,0.5879815188715459,0.6614135944535556,0.7166288467088632,0.752884986071897,0.7725257580669904,0.7806133250169064,0.7832370087627022,0.7860541844105735,0.7928573787709033,0.8045363364287312,0.8192100912532625,0.8324971602858772,0.8388057880615462,0.8328297714699097,0.8108648336188049,0.77203627660724,0.7183281755585059,0.6542155457950911,0.5856513436524353,0.5186608769580784,0.45843347843157517,0.4081224485870557,0.0,0.0,0.0,0.0,0.0,0.0,0.0,0.0,0.0,0.0,0.0,0.0,0.0,0.0,0.0,0.0,0.0,0.0,0.0,0.0,0.0,0.0,0.0,0.0,0.0,0.0,0.0,0.0,0.0,0.0,0.0,0.0,0.0,0.0,0.0,0.0,0.0,0.0,0.0,0.0,0.0,0.0,0.0,0.0,0.0,0.0,0.0,0.0,0.0,0.0,0.0,0.0,0.0,0.0,0.0,0.0,0.0,0.0,0.0,0.0,0.0,0.0,0.0,0.0,0.0,0.0,0.0,0.0,0.0,0.0,0.0,0.0,0.0,0.0,0.0,0.0,0.0,0.0,0.0,0.0,0.0,0.0,0.0,0.0,0.0,0.0,0.0,0.0,0.0,0.0,0.0,0.0,0.0,0.0,0.0,0.0,0.0,0.0,0.0,0.0,0.0,0.0,0.0,0.0,0.0,0.0,0.0,0.0,0.0,0.0,0.0,0.0,0.0,0.0,0.0,0.0,0.0,0.0,0.0,0.0,0.0,0.0,0.0,0.0,0.0,0.0,0.0,0.0,0.0,0.0,0.0,0.0,0.0,0.0,0.0,0.0,0.0,0.0,0.0,0.0,0.0,0.0,0.0,0.0,0.0,0.0,0.0
