0.5969868972540144,0.5913689255959189,0.5857602611257258,0.5792124974163647,0.5728277422290151,0.5666297305812419,0.5605619434865019,0.5545101218736255,0.5475844558132957,0.5407314259957304,0.5338365219077241,0.5267702268864873,0.5194821112637307,0.5113406787857029,0.5035791199247251,0.49644135323147925,0.49006206948214276,0.4844541006538358,0.4788322375677105,0.4739594792040081,0.46953369649389926,0.46517552786181915,0.46057572100500555,0.4549735899996579,0.4494243616031088,0.44425792838105793,0.4398760926091716,0.4366973413561753,0.43446649590295655,0.43425182472144236,0.43597510731016237,0.43921504960679747,0.44329784149167495,0.4468058211016903,0.4498347026887619,0.4516922285360649,0.451819698040359,0.4498983416271745,0.44526895581554726,0.4390753065633044,0.4317573606624844,0.4237939078944009,0.4156560039085958,0.40718298052811674,0.3994985697227008,0.3927340233330692,0.3867899173056282,0.3814136661900171,0.37577632194508925,0.370335751556965,0.36486605786306286,0.35920355178770424,0.3533072076596993,0.34678829892364066,0.34055447832514363,0.3348190740151239,0.32969749293938655,0.3252007491293815,0.3207916229651193,0.3169877886475405,0.31358662921471786,0.0,0.0,0.0,0.0,0.0,0.0,0.0,0.0,0.0,0.0,0.0,0.0,0.0,0.0,0.0,0.0,0.0,0.0,0.0,0.0,0.0,0.0,0.0,0.0,0.0,0.0,0.0,0.0,0.0,0.0,0.0,0.0,0.0,0.0,0.0,0.0,0.0,0.0,0.0,0.0,0.0,0.0,0.0,0.0,0.0,0.0,0.0,0.0,0.0,0.0,0.0,0.0,0.0,0.0,0.0,0.0,0.0,0.0,0.0,0.0,0.0,0.0,0.0,0.0,0.0,0.0,0.0,0.0,0.0,0.0,0.0,0.0,0.0,0.0,0.0,0.0,0.0,0.0,0.0,0.0,0.0,0.0,0.0,0.0,0.0,0.0,0.0,0.0,0.0,0.0,0.0,0.0,0.0,0.0,0.0,0.0,0.0,0.0,0.0,0.0,0.0,0.0,0.0,0.0,0.0,0.0,0.0,0.0,0.0,0.0,0.0,0.0,0.0,0.0,0.0,0.0,0.0,0.0,0.0,0.0,0.0,0.0,0.0,0.0,0.0,0.0,0.0,0.0,0.0,0.0,0.0,0.0,0.0,0.0,0.0,0.0,0.0,0.0,0.0,0.0,0.0,0.0,0.0,0.0,0.0,0.0,0.0,0.0,0.0,0.0,0.0,0.0,0.0,0.0,0.0,0.0,0.0,0.0,0.0,0.0,0.0,0.0,0.0,0.0,0.0,0.0,0.0,0.0,0.0,0.0,0.0,0.0,0.0,0.0,0.0,0.0,0.0,0.0,0.0,0.0,0.0,0.0,0.0,0.0,0.0,0.0,0.0,0.0,0.0,0.0,0.0,0.0,0.0,0.0,0.0,0.0,0.0,0.0,0.0,0.0,0.0,0.0,0.0,0.0,0.0,0.0,0.0,0.0,0.0,0.0,0.0,0.0,0.0,0.0,0.0,0.0,0.0,0.0,0.0,0.0,0.0,0.0,0.0,0.0,0.0,0.0,0.0,0.0,0.0,0.0,0.0,0.0,0.0,0.0,0.0,0.0,0.0,0.0,0.0
0.35920355178770424,0.3533072076596993,0.34678829892364066,0.34055447832514363,0.3348190740151239,0.32969749293938655,0.3252007491293815,0.3207916229651193,0.3169877886475405,0.31358662921471786,0.310341853604682,0.3070514227238302,0.3031956916934681,0.29940419166027726,0.2957422904274067,0.29224437660522434,0.2889020963182789,0.28527435486182606,0.2818256643817219,0.2783976362942896,0.27479740893186455,0.270896621532037,0.2663456436074004,0.26189312735392256,0.2578902351786093,0.2547496680781661,0.252891146745795,0.25230870096215025,0.2537074287084334,0.25701675124014756,0.2618535415092535,0.2675804036519277,0.27302811737511196,0.27790828145291446,0.28145539446339835,0.28303874632936576,0.28226966055806035,0.27866119933823397,0.27299397562439404,0.2657290477109603,0.25744722750860843,0.2487787991768952,0.239966463015012,0.23201487720266545,0.22523591574230115,0.21970155050740192,0.21528793779573005,0.21142892192197402,0.20828317633650334,0.20555143497041028,0.20296345585056463,0.2003355652558509,0.1972981412869771,0.19428286632911163,0.19131764047871166,0.18837828424260267,0.1853831927159717,0.18194089811309927,0.17830836964089566,0.1743717963040221,0.1700635186491497,0.0,0.0,0.0,0.0,0.0,0.0,0.0,0.0,0.0,0.0,0.0,0.0,0.0,0.0,0.0,0.0,0.0,0.0,0.0,0.0,0.0,0.0,0.0,0.0,0.0,0.0,0.0,0.0,0.0,0.0,0.0,0.0,0.0,0.0,0.0,0.0,0.0,0.0,0.0,0.0,0.0,0.0,0.0,0.0,0.0,0.0,0.0,0.0,0.0,0.0,0.0,0.0,0.0,0.0,0.0,0.0,0.0,0.0,0.0,0.0,0.0,0.0,0.0,0.0,0.0,0.0,0.0,0.0,0.0,0.0,0.0,0.0,0.0,0.0,0.0,0.0,0.0,0.0,0.0,0.0,0.0,0.0,0.0,0.0,0.0,0.0,0.0,0.0,0.0,0.0,0.0,0.0,0.0,0.0,0.0,0.0,0.0,0.0,0.0,0.0,0.0,0.0,0.0,0.0,0.0,0.0,0.0,0.0,0.0,0.0,0.0,0.0,0.0,0.0,0.0,0.0,0.0,0.0,0.0,0.0,0.0,0.0,0.0,0.0,0.0,0.0,0.0,0.0,0.0,0.0,0.0,0.0,0.0,0.0,0.0,0.0,0.0,0.0,0.0,0.0,0.0,0.0,0.0,0.0,0.0,0.0,0.0,0.0,0.0,0.0,0.0,0.0,0.0,0.0,0.0,0.0,0.0,0.0,0.0,0.0,0.0,0.0,0.0,0.0,0.0,0.0,0.0,0.0,0.0,0.0,0.0,0.0,0.0,0.0,0.0,0.0,0.0,0.0,0.0,0.0,0.0,0.0,0.0,0.0,0.0,0.0,0.0,0.0,0.0,0.0,0.0,0.0,0.0,0.0,0.0,0.0,0.0,0.0,0.0,0.0,0.0,0.0,0.0,0.0,0.0,0.0,0.0,0.0,0.0,0.0,0.0,0.0,0.0,0.0,0.0,0.0,0.0,0.0,0.0,0.0,0.0,0.0,0.0,0.0,0.0,0.0,0.0,0.0,0.0,0.0,0.0,0.0,0.0,0.0,0.0,0.0,0.0,0.0,0.0
0.2003355652558509,0.1972981412869771,0.19428286632911163,0.19131764047871166,0.18837828424260267,0.1853831927159717,0.18194089811309927,0.17830836964089566,0.1743717963040221,0.1700635186491497,0.16542300334239585,0.16037095557169542,0.15556229032062827,0.15132112096693023,0.14790742046591976,0.14546281396881997,0.14373855986230094,0.14291276063533342,0.14268219370719537,0.14266319079088133,0.1425089099903896,0.1417949071693423,0.14085458484990257,0.13990801064663938,0.13932480887515458,0.1395550060119592,0.14082070583362488,0.14371783510844097,0.14829851979496153,0.15430760223203135,0.16121117488941572,0.16804319537201395,0.1743220824208405,0.17927209178283024,0.18225260295973578,0.18286734376687225,0.18076349979684506,0.17652366145198356,0.17062562653563845,0.16368702433060556,0.15637419951715814,0.1490817035931461,0.14260995523978282,0.1372496155252923,0.1330542629080468,0.129881055267444,0.12727421756914617,0.12518398211729717,0.12331706521398487,0.12144174280459218,0.1194325949694569,0.11710754073679869,0.11479528882043084,0.11261678695443503,0.11066571251887027,0.1089841346714698,0.10739637989105458,0.10606385425612665,0.10488832000579598,0.10375636735083166,0.1025820310718349,0.0,0.0,0.0,0.0,0.0,0.0,0.0,0.0,0.0,0.0,0.0,0.0,0.0,0.0,0.0,0.0,0.0,0.0,0.0,0.0,0.0,0.0,0.0,0.0,0.0,0.0,0.0,0.0,0.0,0.0,0.0,0.0,0.0,0.0,0.0,0.0,0.0,0.0,0.0,0.0,0.0,0.0,0.0,0.0,0.0,0.0,0.0,0.0,0.0,0.0,0.0,0.0,0.0,0.0,0.0,0.0,0.0,0.0,0.0,0.0,0.0,0.0,0.0,0.0,0.0,0.0,0.0,0.0,0.0,0.0,0.0,0.0,0.0,0.0,0.0,0.0,0.0,0.0,0.0,0.0,0.0,0.0,0.0,0.0,0.0,0.0,0.0,0.0,0.0,0.0,0.0,0.0,0.0,0.0,0.0,0.0,0.0,0.0,0.0,0.0,0.0,0.0,0.0,0.0,0.0,0.0,0.0,0.0,0.0,0.0,0.0,0.0,0.0,0.0,0.0,0.0,0.0,0.0,0.0,0.0,0.0,0.0,0.0,0.0,0.0,0.0,0.0,0.0,0.0,0.0,0.0,0.0,0.0,0.0,0.0,0.0,0.0,0.0,0.0,0.0,0.0,0.0,0.0,0.0,0.0,0.0,0.0,0.0,0.0,0.0,0.0,0.0,0.0,0.0,0.0,0.0,0.0,0.0,0.0,0.0,0.0,0.0,0.0,0.0,0.0,0.0,0.0,0.0,0.0,0.0,0.0,0.0,0.0,0.0,0.0,0.0,0.0,0.0,0.0,0.0,0.0,0.0,0.0,0.0,0.0,0.0,0.0,0.0,0.0,0.0,0.0,0.0,0.0,0.0,0.0,0.0,0.0,0.0,0.0,0.0,0.0,0.0,0.0,0.0,0.0,0.0,0.0,0.0,0.0,0.0,0.0,0.0,0.0,0.0,0.0,0.0,0.0,0.0,0.0,0.0,0.0,0.0,0.0,0.0,0.0,0.0,0.0,0.0,0.0,0.0,0.0,0.0,0.0,0.0,0.0,0.0,0.0,0.0,0.0
0.11710754073679869,0.11479528882043084,0.11261678695443503,0.11066571251887027,0.1089841346714698,0.10739637989105458,0.10606385425612665,0.10488832000579598,0.10375636735083166,0.1025820310718349,0.10118811915974972,0.09980502016776159,0.09848875846303565,0.09727948913582267,0.0961799274722,0.09501129209329641,0.0938647779271866,0.09262182263472163,0.09116485488510541,0.08943571702546504,0.08736846788237441,0.08532121234228766,0.08360294399952391,0.08259464849561568,0.08269150657873008,0.08412232825935519,0.08723074158307868,0.09197876454104961,0.09806870069183989,0.10497013752205847,0.1118517104293745,0.118155231068412,0.12316833518807933,0.12631528364545833,0.1272487684653869,0.1257271147253231,0.1222001937665243,0.1171141165817371,0.1110478024622881,0.10462506320540488,0.09828262849640505,0.09267250075175051,0.0880713944116729,0.08454914904019102,0.08200135794542285,0.08009790897104727,0.07872602706477447,0.07762304504212625,0.07657247412974345,0.07543971753026711,0.07408836280921259,0.07268924539646539,0.07131177042920411,0.07002426236643429,0.06887807711511136,0.0678235880971905,0.06698258685449407,0.06632630442475312,0.06580157357318125,0.06534820142714774,0.06483557370273164,0.0,0.0,0.0,0.0,0.0,0.0,0.0,0.0,0.0,0.0,0.0,0.0,0.0,0.0,0.0,0.0,0.0,0.0,0.0,0.0,0.0,0.0,0.0,0.0,0.0,0.0,0.0,0.0,0.0,0.0,0.0,0.0,0.0,0.0,0.0,0.0,0.0,0.0,0.0,0.0,0.0,0.0,0.0,0.0,0.0,0.0,0.0,0.0,0.0,0.0,0.0,0.0,0.0,0.0,0.0,0.0,0.0,0.0,0.0,0.0,0.0,0.0,0.0,0.0,0.0,0.0,0.0,0.0,0.0,0.0,0.0,0.0,0.0,0.0,0.0,0.0,0.0,0.0,0.0,0.0,0.0,0.0,0.0,0.0,0.0,0.0,0.0,0.0,0.0,0.0,0.0,0.0,0.0,0.0,0.0,0.0,0.0,0.0,0.0,0.0,0.0,0.0,0.0,0.0,0.0,0.0,0.0,0.0,0.0,0.0,0.0,0.0,0.0,0.0,0.0,0.0,0.0,0.0,0.0,0.0,0.0,0.0,0.0,0.0,0.0,0.0,0.0,0.0,0.0,0.0,0.0,0.0,0.0,0.0,0.0,0.0,0.0,0.0,0.0,0.0,0.0,0.0,0.0,0.0,0.0,0.0,0.0,0.0,0.0,0.0,0.0,0.0,0.0,0.0,0.0,0.0,0.0,0.0,0.0,0.0,0.0,0.0,0.0,0.0,0.0,0.0,0.0,0.0,0.0,0.0,0.0,0.0,0.0,0.0,0.0,0.0,0.0,0.0,0.0,0.0,0.0,0.0,0.0,0.0,0.0,0.0,0.0,0.0,0.0,0.0,0.0,0.0,0.0,0.0,0.0,0.0,0.0,0.0,0.0,0.0,0.0,0.0,0.0,0.0,0.0,0.0,0.0,0.0,0.0,0.0,0.0,0.0,0.0,0.0,0.0,0.0,0.0,0.0,0.0,0.0,0.0,0.0,0.0,0.0,0.0,0.0,0.0,0.0,0.0,0.0,0.0,0.0,0.0,0.0,0.0,0.0,0.0,0.0,0.0
0.08190036767783389,0.0772757162402747,0.07178277098007416,0.06604470892378397,0.06050356137381184,0.055653878697250615,0.05165979587743319,0.04848125031630583,0.045925406658909186,0.04365521290943316,0.041493473833424395,0.039225611410342705,0.03673393087742586,0.034017375264806145,0.03112773149497285,0.02832211432158638,0.025789162470595917,0.023685199130579357,0.022109343870703103,0.021053971704477856,0.020559365261396675,0.020538417506563347,0.02086443607390179,0.021391074930674315,0.02192164242326068,0.02234731750651001,0.022455480052758978,0.021990958124505182,0.02067280599064553,0.01819414569600605,0.014414002500932258,0.009252199826906126,0.00281692441687745,-0.004546022047937449,-0.012272742860523296,-0.019521373437818228,-0.025398618692328602,-0.029042908843905917,-0.029764850086520432,-0.027193390475068562,-0.021291903344686697,-0.012476139412371544,-0.0015371291366680772,0.010469373892935806,0.02231885702329799,0.03298811336683951,0.04159076997385793,0.04756035468140567,0.050703597872392044,0.051089892273236445,0.04931132919420128,0.04602913049447344,0.04195928149461797,0.03775568036188691,0.03384827579028017,0.030618289271812378,0.0281381432260355,0.02628481086748592,0.024807762851381775,0.023374103536528294,0.02178241922745913,0.0,0.0,0.0,0.0,0.0,0.0,0.0,0.0,0.0,0.0,0.0,0.0,0.0,0.0,0.0,0.0,0.0,0.0,0.0,0.0,0.0,0.0,0.0,0.0,0.0,0.0,0.0,0.0,0.0,0.0,0.0,0.0,0.0,0.0,0.0,0.0,0.0,0.0,0.0,0.0,0.0,0.0,0.0,0.0,0.0,0.0,0.0,0.0,0.0,0.0,0.0,0.0,0.0,0.0,0.0,0.0,0.0,0.0,0.0,0.0,0.0,0.0,0.0,0.0,0.0,0.0,0.0,0.0,0.0,0.0,0.0,0.0,0.0,0.0,0.0,0.0,0.0,0.0,0.0,0.0,0.0,0.0,0.0,0.0,0.0,0.0,0.0,0.0,0.0,0.0,0.0,0.0,0.0,0.0,0.0,0.0,0.0,0.0,0.0,0.0,0.0,0.0,0.0,0.0,0.0,0.0,0.0,0.0,0.0,0.0,0.0,0.0,0.0,0.0,0.0,0.0,0.0,0.0,0.0,0.0,0.0,0.0,0.0,0.0,0.0,0.0,0.0,0.0,0.0,0.0,0.0,0.0,0.0,0.0,0.0,0.0,0.0,0.0,0.0,0.0,0.0,0.0,0.0,0.0,0.0,0.0,0.0,0.0,0.0,0.0,0.0,0.0,0.0,0.0,0.0,0.0,0.0,0.0,0.0,0.0,0.0,0.0,0.0,0.0,0.0,0.0,0.0,0.0,0.0,0.0,0.0,0.0,0.0,0.0,0.0,0.0,0.0,0.0,0.0,0.0,0.0,0.0,0.0,0.0,0.0,0.0,0.0,0.0,0.0,0.0,0.0,0.0,0.0,0.0,0.0,0.0,0.0,0.0,0.0,0.0,0.0,0.0,0.0,0.0,0.0,0.0,0.0,0.0,0.0,0.0,0.0,0.0,0.0,0.0,0.0,0.0,0.0,0.0,0.0,0.0,0.0,0.0,0.0,0.0,0.0,0.0,0.0,0.0,0.0,0.0,0.0,0.0,0.0,0.0,0.0,0.0,0.0,0.0,0.0
0.04602913049447344,0.04195928149461797,0.03775568036188691,0.03384827579028017,0.030618289271812378,0.0281381432260355,0.02628481086748592,0.024807762851381775,0.023374103536528294,0.02178241922745913,0.019872248845902062,0.01760820032732425,0.0150811041952729,0.012451645618913466,0.009989184730947714,0.007906033334261965,0.00634521592213081,0.005354445539164027,0.004872057040406724,0.004798072746119165,0.004970282600922096,0.005229101595758703,0.005454774271688213,0.005647753342996441,0.00575826064987769,0.005777877039487755,0.0057080078641843215,0.005555103004212398,0.00546166816731404,0.0053145642703602445,0.005022878727236733,0.004488526717894692,0.0036610095806149474,0.002703818443337279,0.0017065552513735593,0.0009491683778035204,0.0008201796309942425,0.0017669161570174965,0.004298386349605846,0.008616548979582285,0.01475301204062049,0.022441149503142827,0.031113918268785786,0.039984461605459286,0.04812891050475935,0.05466291389101757,0.05889756077443413,0.06046092038055408,0.05929949171972392,0.05584163515941319,0.05071033254083575,0.04464978752952421,0.038378707660054696,0.03242650201094241,0.027197022121226648,0.022815956399857486,0.019229785907573894,0.016296494939555324,0.013854934463468888,0.011879100463095944,0.010399141603732539,0.0,0.0,0.0,0.0,0.0,0.0,0.0,0.0,0.0,0.0,0.0,0.0,0.0,0.0,0.0,0.0,0.0,0.0,0.0,0.0,0.0,0.0,0.0,0.0,0.0,0.0,0.0,0.0,0.0,0.0,0.0,0.0,0.0,0.0,0.0,0.0,0.0,0.0,0.0,0.0,0.0,0.0,0.0,0.0,0.0,0.0,0.0,0.0,0.0,0.0,0.0,0.0,0.0,0.0,0.0,0.0,0.0,0.0,0.0,0.0,0.0,0.0,0.0,0.0,0.0,0.0,0.0,0.0,0.0,0.0,0.0,0.0,0.0,0.0,0.0,0.0,0.0,0.0,0.0,0.0,0.0,0.0,0.0,0.0,0.0,0.0,0.0,0.0,0.0,0.0,0.0,0.0,0.0,0.0,0.0,0.0,0.0,0.0,0.0,0.0,0.0,0.0,0.0,0.0,0.0,0.0,0.0,0.0,0.0,0.0,0.0,0.0,0.0,0.0,0.0,0.0,0.0,0.0,0.0,0.0,0.0,0.0,0.0,0.0,0.0,0.0,0.0,0.0,0.0,0.0,0.0,0.0,0.0,0.0,0.0,0.0,0.0,0.0,0.0,0.0,0.0,0.0,0.0,0.0,0.0,0.0,0.0,0.0,0.0,0.0,0.0,0.0,0.0,0.0,0.0,0.0,0.0,0.0,0.0,0.0,0.0,0.0,0.0,0.0,0.0,0.0,0.0,0.0,0.0,0.0,0.0,0.0,0.0,0.0,0.0,0.0,0.0,0.0,0.0,0.0,0.0,0.0,0.0,0.0,0.0,0.0,0.0,0.0,0.0,0.0,0.0,0.0,0.0,0.0,0.0,0.0,0.0,0.0,0.0,0.0,0.0,0.0,0.0,0.0,0.0,0.0,0.0,0.0,0.0,0.0,0.0,0.0,0.0,0.0,0.0,0.0,0.0,0.0,0.0,0.0,0.0,0.0,0.0,0.0,0.0,0.0,0.0,0.0,0.0,0.0,0.0,0.0,0.0,0.0,0.0,0.0,0.0,0.0,0.0
0.04464978752952421,0.038378707660054696,0.03242650201094241,0.027197022121226648,0.022815956399857486,0.019229785907573894,0.016296494939555324,0.013854934463468888,0.011879100463095944,0.010399141603732539,0.009487081755493627,0.00916425252167752,0.009269742961876729,0.009423839390065782,0.008926241031005658,0.006820559587850769,0.0020320101037997126,-0.006429872947099063,-0.019192749509699417,-0.036328323558785396,-0.05720365107273274,-0.0804721219688359,-0.10422963640812603,-0.12624891587453363,-0.1443846785256159,-0.15694059910846403,-0.1629762540414715,-0.16248858308904277,-0.15633374372324846,-0.14607171803543478,-0.13361221230213183,-0.12081642493792077,-0.10914994115853616,-0.09937747475319508,-0.09152551220112314,-0.08496572603966362,-0.07865659583437007,-0.07148201228841544,-0.06251703051057328,-0.05131351161602405,-0.038006912117459865,-0.023291103293378832,-0.008322598746040499,0.005695166102897128,0.01759719728524969,0.02652710146056217,0.0320743892476124,0.03421535976926193,0.03356112701307125,0.03092255382866858,0.027227385518816503,0.023344659053416386,0.019872463708156096,0.01727604892297135,0.015659959382586984,0.014876391226844414,0.014614928859220378,0.014467750061680516,0.014168499933645771,0.013542230771405976,0.01256697880266123,0.0,0.0,0.0,0.0,0.0,0.0,0.0,0.0,0.0,0.0,0.0,0.0,0.0,0.0,0.0,0.0,0.0,0.0,0.0,0.0,0.0,0.0,0.0,0.0,0.0,0.0,0.0,0.0,0.0,0.0,0.0,0.0,0.0,0.0,0.0,0.0,0.0,0.0,0.0,0.0,0.0,0.0,0.0,0.0,0.0,0.0,0.0,0.0,0.0,0.0,0.0,0.0,0.0,0.0,0.0,0.0,0.0,0.0,0.0,0.0,0.0,0.0,0.0,0.0,0.0,0.0,0.0,0.0,0.0,0.0,0.0,0.0,0.0,0.0,0.0,0.0,0.0,0.0,0.0,0.0,0.0,0.0,0.0,0.0,0.0,0.0,0.0,0.0,0.0,0.0,0.0,0.0,0.0,0.0,0.0,0.0,0.0,0.0,0.0,0.0,0.0,0.0,0.0,0.0,0.0,0.0,0.0,0.0,0.0,0.0,0.0,0.0,0.0,0.0,0.0,0.0,0.0,0.0,0.0,0.0,0.0,0.0,0.0,0.0,0.0,0.0,0.0,0.0,0.0,0.0,0.0,0.0,0.0,0.0,0.0,0.0,0.0,0.0,0.0,0.0,0.0,0.0,0.0,0.0,0.0,0.0,0.0,0.0,0.0,0.0,0.0,0.0,0.0,0.0,0.0,0.0,0.0,0.0,0.0,0.0,0.0,0.0,0.0,0.0,0.0,0.0,0.0,0.0,0.0,0.0,0.0,0.0,0.0,0.0,0.0,0.0,0.0,0.0,0.0,0.0,0.0,0.0,0.0,0.0,0.0,0.0,0.0,0.0,0.0,0.0,0.0,0.0,0.0,0.0,0.0,0.0,0.0,0.0,0.0,0.0,0.0,0.0,0.0,0.0,0.0,0.0,0.0,0.0,0.0,0.0,0.0,0.0,0.0,0.0,0.0,0.0,0.0,0.0,0.0,0.0,0.0,0.0,0.0,0.0,0.0,0.0,0.0,0.0,0.0,0.0,0.0,0.0,0.0,0.0,0.0,0.0,0.0,0.0,0.0
0.023344659053416386,0.019872463708156096,0.01727604892297135,0.015659959382586984,0.014876391226844414,0.014614928859220378,0.014467750061680516,0.014168499933645771,0.013542230771405976,0.01256697880266123,0.011355234208702174,0.010073870185852879,0.008965884843721008,0.00821361655460159,0.007919975255637158,0.008095539558183972,0.00865935288771589,0.00950839282687248,0.010522423876629083,0.011600980168718904,0.012677453856911764,0.013748297865846271,0.014734423691775548,0.01564666604276749,0.01649341489647096,0.017259368155639557,0.01797211127706206,0.01842066252954407,0.018573415583475705,0.018443099638962422,0.018087857393370977,0.01767292503854948,0.017258320666223927,0.017103626532135787,0.017539078865919815,0.018916346631102386,0.02158133132606329,0.02564854265654387,0.031136866681053837,0.03784883458683449,0.045356500353074855,0.05302428369724796,0.06012343177627142,0.0659531204450688,0.06995277102957015,0.07179665407504733,0.07137870835700454,0.06901989747072629,0.0652155195038163,0.06059063140440692,0.05577627511204448,0.051242820264055765,0.04736868744630046,0.04426035127740733,0.04180993697560756,0.039755896149041625,0.03774026982117515,0.035501222560350446,0.032858319138584086,0.02978050296129707,0.02638560880541707,0.0,0.0,0.0,0.0,0.0,0.0,0.0,0.0,0.0,0.0,0.0,0.0,0.0,0.0,0.0,0.0,0.0,0.0,0.0,0.0,0.0,0.0,0.0,0.0,0.0,0.0,0.0,0.0,0.0,0.0,0.0,0.0,0.0,0.0,0.0,0.0,0.0,0.0,0.0,0.0,0.0,0.0,0.0,0.0,0.0,0.0,0.0,0.0,0.0,0.0,0.0,0.0,0.0,0.0,0.0,0.0,0.0,0.0,0.0,0.0,0.0,0.0,0.0,0.0,0.0,0.0,0.0,0.0,0.0,0.0,0.0,0.0,0.0,0.0,0.0,0.0,0.0,0.0,0.0,0.0,0.0,0.0,0.0,0.0,0.0,0.0,0.0,0.0,0.0,0.0,0.0,0.0,0.0,0.0,0.0,0.0,0.0,0.0,0.0,0.0,0.0,0.0,0.0,0.0,0.0,0.0,0.0,0.0,0.0,0.0,0.0,0.0,0.0,0.0,0.0,0.0,0.0,0.0,0.0,0.0,0.0,0.0,0.0,0.0,0.0,0.0,0.0,0.0,0.0,0.0,0.0,0.0,0.0,0.0,0.0,0.0,0.0,0.0,0.0,0.0,0.0,0.0,0.0,0.0,0.0,0.0,0.0,0.0,0.0,0.0,0.0,0.0,0.0,0.0,0.0,0.0,0.0,0.0,0.0,0.0,0.0,0.0,0.0,0.0,0.0,0.0,0.0,0.0,0.0,0.0,0.0,0.0,0.0,0.0,0.0,0.0,0.0,0.0,0.0,0.0,0.0,0.0,0.0,0.0,0.0,0.0,0.0,0.0,0.0,0.0,0.0,0.0,0.0,0.0,0.0,0.0,0.0,0.0,0.0,0.0,0.0,0.0,0.0,0.0,0.0,0.0,0.0,0.0,0.0,0.0,0.0,0.0,0.0,0.0,0.0,0.0,0.0,0.0,0.0,0.0,0.0,0.0,0.0,0.0,0.0,0.0,0.0,0.0,0.0,0.0,0.0,0.0,0.0,0.0,0.0,0.0,0.0,0.0,0.0
-0.1015760760264861,-0.09247843215825104,-0.08128546319916308,-0.06930624057926388,-0.05778673666541456,-0.04764168793864717,-0.03946507980339224,-0.03345397169893915,-0.029453124475325564,-0.02706829248800894,-0.025755308883761388,-0.02500094797421396,-0.02439631456955266,-0.023683798430962934,-0.022762016115097643,-0.02163888213098778,-0.020397244488535523,-0.019133419407754294,-0.0179144723866003,-0.016753015747574804,-0.015623750807740412,-0.014465509181238529,-0.013219123156218147,-0.011858149643988906,-0.010401318783316538,-0.008944517275964025,-0.007608220502300573,-0.006523894992594453,-0.0058018269013775095,-0.005490603632465154,-0.005603375536572503,-0.006059767164740957,-0.006725648338175805,-0.007446935498626207,-0.008076807817472975,-0.008548417501763692,-0.008838836425581547,-0.008989612748135102,-0.009092044095874902,-0.009249685455306578,-0.009583520025180106,-0.010152739332550623,-0.010955540684914935,-0.011927531908311969,-0.01292044005316624,-0.013850221349164148,-0.01455695000766354,-0.014895200313457375,-0.014763019720749036,-0.014063572035283087,-0.01292541787890131,-0.011413968028246933,-0.009628350758959991,-0.007698181254158604,-0.00573698186731809,-0.00396013313318127,-0.002482830754451465,-0.0013699264145858507,-0.0006333427875681718,-0.00022247706645456974,-9.440308862440896e-05,0.0,0.0,0.0,0.0,0.0,0.0,0.0,0.0,0.0,0.0,0.0,0.0,0.0,0.0,0.0,0.0,0.0,0.0,0.0,0.0,0.0,0.0,0.0,0.0,0.0,0.0,0.0,0.0,0.0,0.0,0.0,0.0,0.0,0.0,0.0,0.0,0.0,0.0,0.0,0.0,0.0,0.0,0.0,0.0,0.0,0.0,0.0,0.0,0.0,0.0,0.0,0.0,0.0,0.0,0.0,0.0,0.0,0.0,0.0,0.0,0.0,0.0,0.0,0.0,0.0,0.0,0.0,0.0,0.0,0.0,0.0,0.0,0.0,0.0,0.0,0.0,0.0,0.0,0.0,0.0,0.0,0.0,0.0,0.0,0.0,0.0,0.0,0.0,0.0,0.0,0.0,0.0,0.0,0.0,0.0,0.0,0.0,0.0,0.0,0.0,0.0,0.0,0.0,0.0,0.0,0.0,0.0,0.0,0.0,0.0,0.0,0.0,0.0,0.0,0.0,0.0,0.0,0.0,0.0,0.0,0.0,0.0,0.0,0.0,0.0,0.0,0.0,0.0,0.0,0.0,0.0,0.0,0.0,0.0,0.0,0.0,0.0,0.0,0.0,0.0,0.0,0.0,0.0,0.0,0.0,0.0,0.0,0.0,0.0,0.0,0.0,0.0,0.0,0.0,0.0,0.0,0.0,0.0,0.0,0.0,0.0,0.0,0.0,0.0,0.0,0.0,0.0,0.0,0.0,0.0,0.0,0.0,0.0,0.0,0.0,0.0,0.0,0.0,0.0,0.0,0.0,0.0,0.0,0.0,0.0,0.0,0.0,0.0,0.0,0.0,0.0,0.0,0.0,0.0,0.0,0.0,0.0,0.0,0.0,0.0,0.0,0.0,0.0,0.0,0.0,0.0,0.0,0.0,0.0,0.0,0.0,0.0,0.0,0.0,0.0,0.0,0.0,0.0,0.0,0.0,0.0,0.0,0.0,0.0,0.0,0.0,0.0,0.0,0.0,0.0,0.0,0.0,0.0,0.0,0.0,0.0,0.0,0.0,0.0
0.14888692999364397,0.12662323599012143,0.10528752631006978,0.08698918300787743,0.07235142522711521,0.05979680244582542,0.046056903725507053,0.026926970692340055,-0.0017637653251491123,-0.04293555105442853,-0.0974572849084999,-0.16366170660348356,-0.23740262303051204,-0.3126524868205001,-0.382510348143121,-0.4403472824905369,-0.48101598758559455,-0.5017322167533641,-0.5024381970431817,-0.485794139381859,-0.4563088541159511,-0.4194599392118264,-0.38065378386081167,-0.3442587138458441,-0.3133417342794947,-0.289171566809633,-0.2715989365516093,-0.2595753509682592,-0.2516185126693202,-0.24672411161712196,-0.24410587724966032,-0.24332994035391653,-0.244062441922336,-0.2455552381885236,-0.2468560938673938,-0.24611474351515467,-0.24089188318397178,-0.22854953287641283,-0.20662998495091153,-0.17407279707349518,-0.13107382738247345,-0.07949991471932648,-0.022772362159047134,0.03453685101498887,0.0875851196954942,0.13192085574787038,0.16426310517270026,0.18300480855831858,0.18809404869404087,0.1818102334543551,0.16736282742585473,0.148500995706266,0.12879771332632295,0.11126569715096024,0.09735059395041562,0.08723973539569088,0.08009627038106663,0.07459061809432735,0.07021793359496012,0.06551133755637412,0.05989213736819718,0.0,0.0,0.0,0.0,0.0,0.0,0.0,0.0,0.0,0.0,0.0,0.0,0.0,0.0,0.0,0.0,0.0,0.0,0.0,0.0,0.0,0.0,0.0,0.0,0.0,0.0,0.0,0.0,0.0,0.0,0.0,0.0,0.0,0.0,0.0,0.0,0.0,0.0,0.0,0.0,0.0,0.0,0.0,0.0,0.0,0.0,0.0,0.0,0.0,0.0,0.0,0.0,0.0,0.0,0.0,0.0,0.0,0.0,0.0,0.0,0.0,0.0,0.0,0.0,0.0,0.0,0.0,0.0,0.0,0.0,0.0,0.0,0.0,0.0,0.0,0.0,0.0,0.0,0.0,0.0,0.0,0.0,0.0,0.0,0.0,0.0,0.0,0.0,0.0,0.0,0.0,0.0,0.0,0.0,0.0,0.0,0.0,0.0,0.0,0.0,0.0,0.0,0.0,0.0,0.0,0.0,0.0,0.0,0.0,0.0,0.0,0.0,0.0,0.0,0.0,0.0,0.0,0.0,0.0,0.0,0.0,0.0,0.0,0.0,0.0,0.0,0.0,0.0,0.0,0.0,0.0,0.0,0.0,0.0,0.0,0.0,0.0,0.0,0.0,0.0,0.0,0.0,0.0,0.0,0.0,0.0,0.0,0.0,0.0,0.0,0.0,0.0,0.0,0.0,0.0,0.0,0.0,0.0,0.0,0.0,0.0,0.0,0.0,0.0,0.0,0.0,0.0,0.0,0.0,0.0,0.0,0.0,0.0,0.0,0.0,0.0,0.0,0.0,0.0,0.0,0.0,0.0,0.0,0.0,0.0,0.0,0.0,0.0,0.0,0.0,0.0,0.0,0.0,0.0,0.0,0.0,0.0,0.0,0.0,0.0,0.0,0.0,0.0,0.0,0.0,0.0,0.0,0.0,0.0,0.0,0.0,0.0,0.0,0.0,0.0,0.0,0.0,0.0,0.0,0.0,0.0,0.0,0.0,0.0,0.0,0.0,0.0,0.0,0.0,0.0,0.0,0.0,0.0,0.0,0.0,0.0,0.0,0.0,0.0
0.148500995706266,0.12879771332632295,0.11126569715096024,0.09735059395041562,0.08723973539569088,0.08009627038106663,0.07459061809432735,0.07021793359496012,0.06551133755637412,0.05989213736819718,0.05330191465113415,0.046103951920708285,0.03954865115965174,0.03347301451997675,0.027965569195398266,0.02281507340211263,0.01761728574708923,0.012535542228099597,0.006544213462033322,-0.0004444958002789612,-0.008224094294429614,-0.016390540803782747,-0.024176609865533934,-0.031628344317080545,-0.038488580659725456,-0.04468734035005161,-0.05039836735465472,-0.05602126542110553,-0.06228222596141941,-0.0697024288461276,-0.07863803508921828,-0.08913700082128173,-0.1008817552891723,-0.11284722522552555,-0.1231184873539297,-0.12910704797339498,-0.12787563428790877,-0.11684637088722834,-0.09382724135254349,-0.05780577618391309,-0.00957467320945899,0.047808303096883116,0.10849829706970479,0.16521983361330825,0.20916995239964076,0.2312739470561627,0.22349224048167504,0.17969338074978639,0.09852629369272235,-0.017176390839589644,-0.15983440248979291,-0.3177762363911775,-0.4770508525656336,-0.6223019788746766,-0.740052026265314,-0.8205072218428735,-0.85904471326403,-0.8569838241283453,-0.82038867844591,-0.7591972043747293,-0.6849624457242546,0.0,0.0,0.0,0.0,0.0,0.0,0.0,0.0,0.0,0.0,0.0,0.0,0.0,0.0,0.0,0.0,0.0,0.0,0.0,0.0,0.0,0.0,0.0,0.0,0.0,0.0,0.0,0.0,0.0,0.0,0.0,0.0,0.0,0.0,0.0,0.0,0.0,0.0,0.0,0.0,0.0,0.0,0.0,0.0,0.0,0.0,0.0,0.0,0.0,0.0,0.0,0.0,0.0,0.0,0.0,0.0,0.0,0.0,0.0,0.0,0.0,0.0,0.0,0.0,0.0,0.0,0.0,0.0,0.0,0.0,0.0,0.0,0.0,0.0,0.0,0.0,0.0,0.0,0.0,0.0,0.0,0.0,0.0,0.0,0.0,0.0,0.0,0.0,0.0,0.0,0.0,0.0,0.0,0.0,0.0,0.0,0.0,0.0,0.0,0.0,0.0,0.0,0.0,0.0,0.0,0.0,0.0,0.0,0.0,0.0,0.0,0.0,0.0,0.0,0.0,0.0,0.0,0.0,0.0,0.0,0.0,0.0,0.0,0.0,0.0,0.0,0.0,0.0,0.0,0.0,0.0,0.0,0.0,0.0,0.0,0.0,0.0,0.0,0.0,0.0,0.0,0.0,0.0,0.0,0.0,0.0,0.0,0.0,0.0,0.0,0.0,0.0,0.0,0.0,0.0,0.0,0.0,0.0,0.0,0.0,0.0,0.0,0.0,0.0,0.0,0.0,0.0,0.0,0.0,0.0,0.0,0.0,0.0,0.0,0.0,0.0,0.0,0.0,0.0,0.0,0.0,0.0,0.0,0.0,0.0,0.0,0.0,0.0,0.0,0.0,0.0,0.0,0.0,0.0,0.0,0.0,0.0,0.0,0.0,0.0,0.0,0.0,0.0,0.0,0.0,0.0,0.0,0.0,0.0,0.0,0.0,0.0,0.0,0.0,0.0,0.0,0.0,0.0,0.0,0.0,0.0,0.0,0.0,0.0,0.0,0.0,0.0,0.0,0.0,0.0,0.0,0.0,0.0,0.0,0.0,0.0,0.0,0.0,0.0
-0.3177762363911775,-0.4770508525656336,-0.6223019788746766,-0.740052026265314,-0.8205072218428735,-0.85904471326403,-0.8569838241283453,-0.82038867844591,-0.7591972043747293,-0.6849624457242546,-0.6086093394425405,-0.5386598844688548,-0.47960990834852013,-0.4320426766295422,-0.39317250941828674,-0.358173965621051,-0.321868396261518,-0.2800550765446438,-0.23070668124811475,-0.17429597894703958,-0.11347552352059766,-0.05223090339081584,0.005275531255131492,0.055779495945533275,0.09766504436803704,0.13122291857985577,0.15841765963633986,0.1820861948896553,0.20519554763771178,0.22994836038417507,0.2572139881722502,0.28647205380156626,0.31581541527545554,0.34292505537324164,0.36575241732469216,0.38320505776464475,0.39566341171028635,0.40443894921535933,0.4117999341001255,0.42004761707212424,0.4307054624271406,0.4438280556514701,0.45808770086773765,0.4707709759924343,0.4785208227303924,0.4782058670896365,0.46743209978055744,0.4461707255999591,0.4158599865685612,0.37942049811224454,0.340584964507042,0.3030838868303926,0.26961780907841965,0.24185030330870425,0.2199913154989879,0.20296406192444746,0.18926632085221304,0.1760601156417795,0.16184938371287808,0.14601524209017122,0.1287944807968281,0.0,0.0,0.0,0.0,0.0,0.0,0.0,0.0,0.0,0.0,0.0,0.0,0.0,0.0,0.0,0.0,0.0,0.0,0.0,0.0,0.0,0.0,0.0,0.0,0.0,0.0,0.0,0.0,0.0,0.0,0.0,0.0,0.0,0.0,0.0,0.0,0.0,0.0,0.0,0.0,0.0,0.0,0.0,0.0,0.0,0.0,0.0,0.0,0.0,0.0,0.0,0.0,0.0,0.0,0.0,0.0,0.0,0.0,0.0,0.0,0.0,0.0,0.0,0.0,0.0,0.0,0.0,0.0,0.0,0.0,0.0,0.0,0.0,0.0,0.0,0.0,0.0,0.0,0.0,0.0,0.0,0.0,0.0,0.0,0.0,0.0,0.0,0.0,0.0,0.0,0.0,0.0,0.0,0.0,0.0,0.0,0.0,0.0,0.0,0.0,0.0,0.0,0.0,0.0,0.0,0.0,0.0,0.0,0.0,0.0,0.0,0.0,0.0,0.0,0.0,0.0,0.0,0.0,0.0,0.0,0.0,0.0,0.0,0.0,0.0,0.0,0.0,0.0,0.0,0.0,0.0,0.0,0.0,0.0,0.0,0.0,0.0,0.0,0.0,0.0,0.0,0.0,0.0,0.0,0.0,0.0,0.0,0.0,0.0,0.0,0.0,0.0,0.0,0.0,0.0,0.0,0.0,0.0,0.0,0.0,0.0,0.0,0.0,0.0,0.0,0.0,0.0,0.0,0.0,0.0,0.0,0.0,0.0,0.0,0.0,0.0,0.0,0.0,0.0,0.0,0.0,0.0,0.0,0.0,0.0,0.0,0.0,0.0,0.0,0.0,0.0,0.0,0.0,0.0,0.0,0.0,0.0,0.0,0.0,0.0,0.0,0.0,0.0,0.0,0.0,0.0,0.0,0.0,0.0,0.0,0.0,0.0,0.0,0.0,0.0,0.0,0.0,0.0,0.0,0.0,0.0,0.0,0.0,0.0,0.0,0.0,0.0,0.0,0.0,0.0,0.0,0.0,0.0,0.0,0.0,0.0,0.0,0.0,0.0
-0.7630335263822324,-0.8051616791138959,-0.8110223987302599,-0.7862021091062272,-0.7394465459899267,-0.6807992421652843,-0.6197494442142665,-0.5637353443511355,-0.5171652652612216,-0.4812846932246196,-0.4546934332597673,-0.4343372093146369,-0.4166193390315347,-0.398585678955566,-0.37840465318589095,-0.3556351249134142,-0.331019101599322,-0.30594560305512997,-0.2820858159634966,-0.2607161823758107,-0.2425444309874839,-0.22770099388400716,-0.21583959014097942,-0.20659576168268956,-0.1995200215521056,-0.19422212765776745,-0.19028769751028043,-0.18702505452615398,-0.18346824605194964,-0.17802750949590554,-0.16860933507009424,-0.15287440113655368,-0.12861800778594176,-0.09450632179805796,-0.05038396848256773,0.0023295758142241403,0.06059053285200745,0.1198529270022385,0.17523100635885194,0.22178100082820282,0.2555071059288271,0.27405546684056853,0.27670061629310627,0.26564803717331403,0.24437223978163738,0.21727990009738984,0.18883225110521126,0.16267762169792374,0.14099066368732124,0.12455076428290639,0.11267221316576306,0.10360903536985397,0.09552181978629819,0.08573716252509503,0.07320356103750082,0.05795974118942564,0.040965846288598506,0.024001378199304875,0.008114817632014172,-0.005278268984450753,-0.015276312443456484,0.0,0.0,0.0,0.0,0.0,0.0,0.0,0.0,0.0,0.0,0.0,0.0,0.0,0.0,0.0,0.0,0.0,0.0,0.0,0.0,0.0,0.0,0.0,0.0,0.0,0.0,0.0,0.0,0.0,0.0,0.0,0.0,0.0,0.0,0.0,0.0,0.0,0.0,0.0,0.0,0.0,0.0,0.0,0.0,0.0,0.0,0.0,0.0,0.0,0.0,0.0,0.0,0.0,0.0,0.0,0.0,0.0,0.0,0.0,0.0,0.0,0.0,0.0,0.0,0.0,0.0,0.0,0.0,0.0,0.0,0.0,0.0,0.0,0.0,0.0,0.0,0.0,0.0,0.0,0.0,0.0,0.0,0.0,0.0,0.0,0.0,0.0,0.0,0.0,0.0,0.0,0.0,0.0,0.0,0.0,0.0,0.0,0.0,0.0,0.0,0.0,0.0,0.0,0.0,0.0,0.0,0.0,0.0,0.0,0.0,0.0,0.0,0.0,0.0,0.0,0.0,0.0,0.0,0.0,0.0,0.0,0.0,0.0,0.0,0.0,0.0,0.0,0.0,0.0,0.0,0.0,0.0,0.0,0.0,0.0,0.0,0.0,0.0,0.0,0.0,0.0,0.0,0.0,0.0,0.0,0.0,0.0,0.0,0.0,0.0,0.0,0.0,0.0,0.0,0.0,0.0,0.0,0.0,0.0,0.0,0.0,0.0,0.0,0.0,0.0,0.0,0.0,0.0,0.0,0.0,0.0,0.0,0.0,0.0,0.0,0.0,0.0,0.0,0.0,0.0,0.0,0.0,0.0,0.0,0.0,0.0,0.0,0.0,0.0,0.0,0.0,0.0,0.0,0.0,0.0,0.0,0.0,0.0,0.0,0.0,0.0,0.0,0.0,0.0,0.0,0.0,0.0,0.0,0.0,0.0,0.0,0.0,0.0,0.0,0.0,0.0,0.0,0.0,0.0,0.0,0.0,0.0,0.0,0.0,0.0,0.0,0.0,0.0,0.0,0.0,0.0,0.0,0.0,0.0,0.0,0.0,0.0,0.0,0.0
-0.7045017354770332,-0.6495976931565056,-0.5826313507736427,-0.5119744864578875,-0.4441664981935372,-0.385232214330698,-0.33790262490180456,-0.3021597360072094,-0.275708905677199,-0.2541047993338017,-0.23414403383907884,-0.21288497862706948,-0.18883522473609787,-0.1621145866976646,-0.13362981508288077,-0.10609782638999746,-0.08183648577292701,-0.06247785465810666,-0.04852026771813016,-0.038942508459671676,-0.03246787744023808,-0.02718742932090888,-0.02145798335919358,-0.014392837575947675,-0.00589732035079316,0.002924654339819034,0.010754437040405785,0.016480129836988964,0.01973459256623481,0.021224967189228006,0.022535300607624043,0.025821582709300496,0.03298677773839789,0.044813364519877955,0.06019065467623782,0.07593370487940598,0.08696487656100649,0.0870365987947356,0.06989213647352105,0.030475286894008483,-0.03339374561144591,-0.12038135857839712,-0.22545580671557444,-0.34050495940204384,-0.4551906069586447,-0.5601620274687134,-0.6472141874124637,-0.7112222664774243,-0.7509020552776086,-0.7677027169186024,-0.7683543673552949,-0.760009202399517,-0.7495973720785837,-0.7422679689967875,-0.739647629610905,-0.7416770104751101,-0.7448310788992983,-0.7439302631621071,-0.7336338827159663,-0.7096259035409371,-0.6706658836668529,0.0,0.0,0.0,0.0,0.0,0.0,0.0,0.0,0.0,0.0,0.0,0.0,0.0,0.0,0.0,0.0,0.0,0.0,0.0,0.0,0.0,0.0,0.0,0.0,0.0,0.0,0.0,0.0,0.0,0.0,0.0,0.0,0.0,0.0,0.0,0.0,0.0,0.0,0.0,0.0,0.0,0.0,0.0,0.0,0.0,0.0,0.0,0.0,0.0,0.0,0.0,0.0,0.0,0.0,0.0,0.0,0.0,0.0,0.0,0.0,0.0,0.0,0.0,0.0,0.0,0.0,0.0,0.0,0.0,0.0,0.0,0.0,0.0,0.0,0.0,0.0,0.0,0.0,0.0,0.0,0.0,0.0,0.0,0.0,0.0,0.0,0.0,0.0,0.0,0.0,0.0,0.0,0.0,0.0,0.0,0.0,0.0,0.0,0.0,0.0,0.0,0.0,0.0,0.0,0.0,0.0,0.0,0.0,0.0,0.0,0.0,0.0,0.0,0.0,0.0,0.0,0.0,0.0,0.0,0.0,0.0,0.0,0.0,0.0,0.0,0.0,0.0,0.0,0.0,0.0,0.0,0.0,0.0,0.0,0.0,0.0,0.0,0.0,0.0,0.0,0.0,0.0,0.0,0.0,0.0,0.0,0.0,0.0,0.0,0.0,0.0,0.0,0.0,0.0,0.0,0.0,0.0,0.0,0.0,0.0,0.0,0.0,0.0,0.0,0.0,0.0,0.0,0.0,0.0,0.0,0.0,0.0,0.0,0.0,0.0,0.0,0.0,0.0,0.0,0.0,0.0,0.0,0.0,0.0,0.0,0.0,0.0,0.0,0.0,0.0,0.0,0.0,0.0,0.0,0.0,0.0,0.0,0.0,0.0,0.0,0.0,0.0,0.0,0.0,0.0,0.0,0.0,0.0,0.0,0.0,0.0,0.0,0.0,0.0,0.0,0.0,0.0,0.0,0.0,0.0,0.0,0.0,0.0,0.0,0.0,0.0,0.0,0.0,0.0,0.0,0.0,0.0,0.0,0.0,0.0,0.0,0.0,0.0,0.0
-0.760009202399517,-0.7495973720785837,-0.7422679689967875,-0.739647629610905,-0.7416770104751101,-0.7448310788992983,-0.7439302631621071,-0.7336338827159663,-0.7096259035409371,-0.6706658836668529,-0.6179942474703052,-0.5553959681328682,-0.48831802748199105,-0.4225106848364415,-0.3631288910478248,-0.313272245897085,-0.2737004382123707,-0.2430021722480158,-0.21835029173646797,-0.19628379647650945,-0.17379424077603223,-0.14907687640345355,-0.12187363514829265,-0.09346111768853296,-0.06568785910752244,-0.04045528757735333,-0.018873994573700443,-0.0007450980485695536,0.015344854516733938,0.03225002295555233,0.053009240196567914,0.0799288025298223,0.11353936597812153,0.1516103880859682,0.18959992615099364,0.22048702707388024,0.23594581626635405,0.22782383000481257,0.18955858785366936,0.11848552704996064,0.01620129234449204,-0.11097902620948852,-0.2526237962895225,-0.3952426573781465,-0.5253954044335591,-0.6305511275836666,-0.7013828120589971,-0.7330714225838574,-0.7248615471893822,-0.6828063816594296,-0.6154677288016984,-0.5333040021459311,-0.44687619122527156,-0.364084478665194,-0.29253309289629886,-0.23536059615024787,-0.192370712308221,-0.16068095986668587,-0.13453024844971065,-0.1106310518036285,-0.08542520546775373,0.0,0.0,0.0,0.0,0.0,0.0,0.0,0.0,0.0,0.0,0.0,0.0,0.0,0.0,0.0,0.0,0.0,0.0,0.0,0.0,0.0,0.0,0.0,0.0,0.0,0.0,0.0,0.0,0.0,0.0,0.0,0.0,0.0,0.0,0.0,0.0,0.0,0.0,0.0,0.0,0.0,0.0,0.0,0.0,0.0,0.0,0.0,0.0,0.0,0.0,0.0,0.0,0.0,0.0,0.0,0.0,0.0,0.0,0.0,0.0,0.0,0.0,0.0,0.0,0.0,0.0,0.0,0.0,0.0,0.0,0.0,0.0,0.0,0.0,0.0,0.0,0.0,0.0,0.0,0.0,0.0,0.0,0.0,0.0,0.0,0.0,0.0,0.0,0.0,0.0,0.0,0.0,0.0,0.0,0.0,0.0,0.0,0.0,0.0,0.0,0.0,0.0,0.0,0.0,0.0,0.0,0.0,0.0,0.0,0.0,0.0,0.0,0.0,0.0,0.0,0.0,0.0,0.0,0.0,0.0,0.0,0.0,0.0,0.0,0.0,0.0,0.0,0.0,0.0,0.0,0.0,0.0,0.0,0.0,0.0,0.0,0.0,0.0,0.0,0.0,0.0,0.0,0.0,0.0,0.0,0.0,0.0,0.0,0.0,0.0,0.0,0.0,0.0,0.0,0.0,0.0,0.0,0.0,0.0,0.0,0.0,0.0,0.0,0.0,0.0,0.0,0.0,0.0,0.0,0.0,0.0,0.0,0.0,0.0,0.0,0.0,0.0,0.0,0.0,0.0,0.0,0.0,0.0,0.0,0.0,0.0,0.0,0.0,0.0,0.0,0.0,0.0,0.0,0.0,0.0,0.0,0.0,0.0,0.0,0.0,0.0,0.0,0.0,0.0,0.0,0.0,0.0,0.0,0.0,0.0,0.0,0.0,0.0,0.0,0.0,0.0,0.0,0.0,0.0,0.0,0.0,0.0,0.0,0.0,0.0,0.0,0.0,0.0,0.0,0.0,0.0,0.0,0.0,0.0,0.0,0.0,0.0,0.0,0.0
-0.5333040021459311,-0.44687619122527156,-0.364084478665194,-0.29253309289629886,-0.23536059615024787,-0.192370712308221,-0.16068095986668587,-0.13453024844971065,-0.1106310518036285,-0.08542520546775373,-0.057037958859926186,-0.025515971567825476,0.008307122769807473,0.040941401502587293,0.06969085548360489,0.09273536072222226,0.10964901673103493,0.12181376450999808,0.13088300454692817,0.13920964487617596,0.14870873052832978,0.1602469927819984,0.17353418465751244,0.18693647150405418,0.19852242508159323,0.20668942214245722,0.21084496883296192,0.21165511346302993,0.21125215399384067,0.21238894378180365,0.21754068593462084,0.22785049837314528,0.24190590919063867,0.25661769652326155,0.26647781153750727,0.2647582192370064,0.24485602791332875,0.20112363495835564,0.1322912066201525,0.04039426620541249,-0.06875002033475729,-0.18646603951496,-0.30258885199793256,-0.40833757947050076,-0.49720409167491003,-0.566517439195815,-0.6177881069432487,-0.654842048746808,-0.6862062741566275,-0.7193380274616094,-0.7597112104432275,-0.8092193117623425,-0.8648560166714252,-0.9209083263194845,-0.9683717570833037,-0.997611377303825,-1.0006505165814363,-0.9731736134062067,-0.9154964998761497,-0.8325072034091885,-0.7327086367835839,0.0,0.0,0.0,0.0,0.0,0.0,0.0,0.0,0.0,0.0,0.0,0.0,0.0,0.0,0.0,0.0,0.0,0.0,0.0,0.0,0.0,0.0,0.0,0.0,0.0,0.0,0.0,0.0,0.0,0.0,0.0,0.0,0.0,0.0,0.0,0.0,0.0,0.0,0.0,0.0,0.0,0.0,0.0,0.0,0.0,0.0,0.0,0.0,0.0,0.0,0.0,0.0,0.0,0.0,0.0,0.0,0.0,0.0,0.0,0.0,0.0,0.0,0.0,0.0,0.0,0.0,0.0,0.0,0.0,0.0,0.0,0.0,0.0,0.0,0.0,0.0,0.0,0.0,0.0,0.0,0.0,0.0,0.0,0.0,0.0,0.0,0.0,0.0,0.0,0.0,0.0,0.0,0.0,0.0,0.0,0.0,0.0,0.0,0.0,0.0,0.0,0.0,0.0,0.0,0.0,0.0,0.0,0.0,0.0,0.0,0.0,0.0,0.0,0.0,0.0,0.0,0.0,0.0,0.0,0.0,0.0,0.0,0.0,0.0,0.0,0.0,0.0,0.0,0.0,0.0,0.0,0.0,0.0,0.0,0.0,0.0,0.0,0.0,0.0,0.0,0.0,0.0,0.0,0.0,0.0,0.0,0.0,0.0,0.0,0.0,0.0,0.0,0.0,0.0,0.0,0.0,0.0,0.0,0.0,0.0,0.0,0.0,0.0,0.0,0.0,0.0,0.0,0.0,0.0,0.0,0.0,0.0,0.0,0.0,0.0,0.0,0.0,0.0,0.0,0.0,0.0,0.0,0.0,0.0,0.0,0.0,0.0,0.0,0.0,0.0,0.0,0.0,0.0,0.0,0.0,0.0,0.0,0.0,0.0,0.0,0.0,0.0,0.0,0.0,0.0,0.0,0.0,0.0,0.0,0.0,0.0,0.0,0.0,0.0,0.0,0.0,0.0,0.0,0.0,0.0,0.0,0.0,0.0,0.0,0.0,0.0,0.0,0.0,0.0,0.0,0.0,0.0,0.0,0.0,0.0,0.0,0.0,0.0,0.0
-0.8092193117623425,-0.8648560166714252,-0.9209083263194845,-0.9683717570833037,-0.997611377303825,-1.0006505165814363,-0.9731736134062067,-0.9154964998761497,-0.8325072034091885,-0.7327086367835839,-0.6264343152096757,-0.524092935693433,-0.4332129331487831,-0.3579448692995375,-0.2985818638440154,-0.25221811383791515,-0.2147280327920205,-0.1804207450707444,-0.14507187593266302,-0.1064543161097949,-0.06461341580838409,-0.022008285944311052,0.019278615073088083,0.057214992478009874,0.09127874087986795,0.12299128222114698,0.15525301230391764,0.19317593867565006,0.24124779293658052,0.3021511415707323,0.3752821279726968,0.455203909531978,0.533391720216369,0.5974368185662912,0.6332754416805233,0.6275729737242467,0.5696722439159054,0.4559899308582511,0.28972990681742367,0.08175910907944256,-0.1503966672787291,-0.38515815574392864,-0.5990009645441761,-0.7704439051772345,-0.883163801662102,-0.928366308281705,-0.9059346044066164,-0.8241074509566686,-0.6970285115525268,-0.5425096126439947,-0.37907388507018963,-0.22303250301781363,-0.08686889246216581,0.023370091330178325,0.10752726522162799,0.1702185381413257,0.2192086402748333,0.2620732866943356,0.3061427936054969,0.35610607284470197,0.41309787426853606,0.0,0.0,0.0,0.0,0.0,0.0,0.0,0.0,0.0,0.0,0.0,0.0,0.0,0.0,0.0,0.0,0.0,0.0,0.0,0.0,0.0,0.0,0.0,0.0,0.0,0.0,0.0,0.0,0.0,0.0,0.0,0.0,0.0,0.0,0.0,0.0,0.0,0.0,0.0,0.0,0.0,0.0,0.0,0.0,0.0,0.0,0.0,0.0,0.0,0.0,0.0,0.0,0.0,0.0,0.0,0.0,0.0,0.0,0.0,0.0,0.0,0.0,0.0,0.0,0.0,0.0,0.0,0.0,0.0,0.0,0.0,0.0,0.0,0.0,0.0,0.0,0.0,0.0,0.0,0.0,0.0,0.0,0.0,0.0,0.0,0.0,0.0,0.0,0.0,0.0,0.0,0.0,0.0,0.0,0.0,0.0,0.0,0.0,0.0,0.0,0.0,0.0,0.0,0.0,0.0,0.0,0.0,0.0,0.0,0.0,0.0,0.0,0.0,0.0,0.0,0.0,0.0,0.0,0.0,0.0,0.0,0.0,0.0,0.0,0.0,0.0,0.0,0.0,0.0,0.0,0.0,0.0,0.0,0.0,0.0,0.0,0.0,0.0,0.0,0.0,0.0,0.0,0.0,0.0,0.0,0.0,0.0,0.0,0.0,0.0,0.0,0.0,0.0,0.0,0.0,0.0,0.0,0.0,0.0,0.0,0.0,0.0,0.0,0.0,0.0,0.0,0.0,0.0,0.0,0.0,0.0,0.0,0.0,0.0,0.0,0.0,0.0,0.0,0.0,0.0,0.0,0.0,0.0,0.0,0.0,0.0,0.0,0.0,0.0,0.0,0.0,0.0,0.0,0.0,0.0,0.0,0.0,0.0,0.0,0.0,0.0,0.0,0.0,0.0,0.0,0.0,0.0,0.0,0.0,0.0,0.0,0.0,0.0,0.0,0.0,0.0,0.0,0.0,0.0,0.0,0.0,0.0,0.0,0.0,0.0,0.0,0.0,0.0,0.0,0.0,0.0,0.0,0.0,0.0,0.0,0.0,0.0,0.0,0.0
-0.22303250301781363,-0.08686889246216581,0.023370091330178325,0.10752726522162799,0.1702185381413257,0.2192086402748333,0.2620732866943356,0.3061427936054969,0.35610607284470197,0.41309787426853606,0.474790064057976,0.5356997428372849,0.5897050330457083,0.6311231351191272,0.6559772103957465,0.6627153829075646,0.652470438154665,0.6288621318884001,0.5969882055941831,0.5623259821348665,0.5295577669363142,0.5023604388653575,0.4828505765737692,0.4717388926878162,0.4686747538739865,0.4724059199731791,0.4820144624926976,0.49632248548314956,0.5141235747330881,0.5340502385107883,0.5538910166407488,0.5723198058154306,0.587278834682994,0.5968098864736773,0.59942572314759,0.593639064791587,0.5808133811522235,0.5624193665743665,0.5406195049276744,0.5178302136378603,0.49591583226159125,0.4765242407471516,0.4603781744454135,0.44727350133339594,0.43623470412813076,0.42608980738387675,0.41482131011157136,0.4017781890109069,0.38706391286212977,0.37136834288677245,0.35566960359894456,0.34072511879880485,0.32735254327423036,0.31597384134480183,0.3065019816454141,0.2981568000661463,0.2903559724605362,0.2822418920510271,0.27318974059638707,0.2630244599392948,0.25177554017543813,0.0,0.0,0.0,0.0,0.0,0.0,0.0,0.0,0.0,0.0,0.0,0.0,0.0,0.0,0.0,0.0,0.0,0.0,0.0,0.0,0.0,0.0,0.0,0.0,0.0,0.0,0.0,0.0,0.0,0.0,0.0,0.0,0.0,0.0,0.0,0.0,0.0,0.0,0.0,0.0,0.0,0.0,0.0,0.0,0.0,0.0,0.0,0.0,0.0,0.0,0.0,0.0,0.0,0.0,0.0,0.0,0.0,0.0,0.0,0.0,0.0,0.0,0.0,0.0,0.0,0.0,0.0,0.0,0.0,0.0,0.0,0.0,0.0,0.0,0.0,0.0,0.0,0.0,0.0,0.0,0.0,0.0,0.0,0.0,0.0,0.0,0.0,0.0,0.0,0.0,0.0,0.0,0.0,0.0,0.0,0.0,0.0,0.0,0.0,0.0,0.0,0.0,0.0,0.0,0.0,0.0,0.0,0.0,0.0,0.0,0.0,0.0,0.0,0.0,0.0,0.0,0.0,0.0,0.0,0.0,0.0,0.0,0.0,0.0,0.0,0.0,0.0,0.0,0.0,0.0,0.0,0.0,0.0,0.0,0.0,0.0,0.0,0.0,0.0,0.0,0.0,0.0,0.0,0.0,0.0,0.0,0.0,0.0,0.0,0.0,0.0,0.0,0.0,0.0,0.0,0.0,0.0,0.0,0.0,0.0,0.0,0.0,0.0,0.0,0.0,0.0,0.0,0.0,0.0,0.0,0.0,0.0,0.0,0.0,0.0,0.0,0.0,0.0,0.0,0.0,0.0,0.0,0.0,0.0,0.0,0.0,0.0,0.0,0.0,0.0,0.0,0.0,0.0,0.0,0.0,0.0,0.0,0.0,0.0,0.0,0.0,0.0,0.0,0.0,0.0,0.0,0.0,0.0,0.0,0.0,0.0,0.0,0.0,0.0,0.0,0.0,0.0,0.0,0.0,0.0,0.0,0.0,0.0,0.0,0.0,0.0,0.0,0.0,0.0,0.0,0.0,0.0,0.0,0.0,0.0,0.0,0.0,0.0,0.0
0.20625832670751762,0.20475807130203716,0.19254200310377054,0.17223958735539113,0.14716135601664637,0.12070605504545986,0.09562694271180192,0.07413009286425924,0.05714534370287091,0.0444993019652523,0.035153783383402096,0.02755023216017511,0.02018300113224726,0.011870868859910191,0.0020498500307199615,-0.00914657423688059,-0.02099551463047446,-0.032397084873549045,-0.042173451100345406,-0.04936593483073075,-0.05344693185716328,-0.05438453869707995,-0.052686317152580986,-0.04912444645463597,-0.04458148250415581,-0.03986043602246035,-0.0355026093485853,-0.03191347600165356,-0.029195346198094174,-0.02732342711804165,-0.02627394018775744,-0.02604623340238042,-0.026947167309834458,-0.029238373607757537,-0.03309120058320174,-0.03840616118457961,-0.04458015906813833,-0.05063255766540936,-0.05495758414658493,-0.055593522455374585,-0.050538382181401775,-0.038097756902828156,-0.01747728949891801,0.011155118628914409,0.04642032304765488,0.0857798324105248,0.12568452802846122,0.16246063715607634,0.19250610578480448,0.21295312339861971,0.22209804700245134,0.21931651006537856,0.20608011798181447,0.18471696507848537,0.15829805341719114,0.130116251570182,0.1028505130586287,0.07911434000814249,0.06031721095348385,0.046837905227880054,0.038134456137912706,0.03270108611875047,0.029356456493047817,0.026853853882656743,0.02432268929616809,0.02135837932059832,0.01787684101110753,0.014196753223189343,0.010653764104463113,0.007457053044814694,0.00458230250328393,0.0019096878945174596,-0.0011108265731632494,0.0,0.0,0.0,0.0,0.0,0.0,0.0,0.0,0.0,0.0,0.0,0.0,0.0,0.0,0.0,0.0,0.0,0.0,0.0,0.0,0.0,0.0,0.0,0.0,0.0,0.0,0.0,0.0,0.0,0.0,0.0,0.0,0.0,0.0,0.0,0.0,0.0,0.0,0.0,0.0,0.0,0.0,0.0,0.0,0.0,0.0,0.0,0.0,0.0,0.0,0.0,0.0,0.0,0.0,0.0,0.0,0.0,0.0,0.0,0.0,0.0,0.0,0.0,0.0,0.0,0.0,0.0,0.0,0.0,0.0,0.0,0.0,0.0,0.0,0.0,0.0,0.0,0.0,0.0,0.0,0.0,0.0,0.0,0.0,0.0,0.0,0.0,0.0,0.0,0.0,0.0,0.0,0.0,0.0,0.0,0.0,0.0,0.0,0.0,0.0,0.0,0.0,0.0,0.0,0.0,0.0,0.0,0.0,0.0,0.0,0.0,0.0,0.0,0.0,0.0,0.0,0.0,0.0,0.0,0.0,0.0,0.0,0.0,0.0,0.0,0.0,0.0,0.0,0.0,0.0,0.0,0.0,0.0,0.0,0.0,0.0,0.0,0.0,0.0,0.0,0.0,0.0,0.0,0.0,0.0,0.0,0.0,0.0,0.0,0.0,0.0,0.0,0.0,0.0,0.0,0.0,0.0,0.0,0.0,0.0,0.0,0.0,0.0,0.0,0.0,0.0,0.0,0.0,0.0,0.0,0.0,0.0,0.0,0.0,0.0,0.0,0.0,0.0,0.0,0.0,0.0,0.0,0.0,0.0,0.0,0.0,0.0,0.0,0.0,0.0,0.0,0.0,0.0,0.0,0.0,0.0,0.0,0.0,0.0,0.0,0.0,0.0,0.0,0.0,0.0,0.0,0.0,0.0,0.0,0.0,0.0,0.0,0.0,0.0,0.0,0.0,0.0,0.0,0.0,0.0,0.0,0.0,0.0,0.0,0.0,0.0,0.0
0.21931651006537856,0.20608011798181447,0.18471696507848537,0.15829805341719114,0.130116251570182,0.1028505130586287,0.07911434000814249,0.06031721095348385,0.046837905227880054,0.038134456137912706,0.03270108611875047,0.029356456493047817,0.026853853882656743,0.02432268929616809,0.02135837932059832,0.01787684101110753,0.014196753223189343,0.010653764104463113,0.007457053044814694,0.00458230250328393,0.0019096878945174596,-0.0011108265731632494,-0.0049079681879446975,-0.009720332811276345,-0.015459830630143143,-0.021629490795941102,-0.027523728415017365,-0.03226114256390766,-0.03506690155525446,-0.03550196376357022,-0.033674217361301814,-0.03007891335287055,-0.025570753172005446,-0.02110316759723623,-0.017433889035560573,-0.01497867532192501,-0.013275328211906036,-0.011207679443004544,-0.007156060270675301,0.0006341856924490651,0.013414362008324247,0.0320702060860904,0.05648341175840524,0.08551394286511568,0.11712912338991138,0.14846518604115774,0.1772299243126145,0.2014682418263201,0.22020158245255633,0.23362406108737366,0.2426337424307781,0.24972604665824472,0.2572511038792612,0.26712018103752744,0.2802037566963998,0.29569840952471216,0.31173919568605957,0.3249655450617859,0.3313068824261045,0.3267834523054258,0.30830820368141487,0.2746147223374616,0.2265269352339838,0.16708151482165556,0.10117810972345963,0.03486504476668858,-0.025553062652628192,-0.07453534706428208,-0.10811361381088207,-0.12442723285850658,-0.12383926629450934,-0.10882380009025715,-0.08331893084413038,0.0,0.0,0.0,0.0,0.0,0.0,0.0,0.0,0.0,0.0,0.0,0.0,0.0,0.0,0.0,0.0,0.0,0.0,0.0,0.0,0.0,0.0,0.0,0.0,0.0,0.0,0.0,0.0,0.0,0.0,0.0,0.0,0.0,0.0,0.0,0.0,0.0,0.0,0.0,0.0,0.0,0.0,0.0,0.0,0.0,0.0,0.0,0.0,0.0,0.0,0.0,0.0,0.0,0.0,0.0,0.0,0.0,0.0,0.0,0.0,0.0,0.0,0.0,0.0,0.0,0.0,0.0,0.0,0.0,0.0,0.0,0.0,0.0,0.0,0.0,0.0,0.0,0.0,0.0,0.0,0.0,0.0,0.0,0.0,0.0,0.0,0.0,0.0,0.0,0.0,0.0,0.0,0.0,0.0,0.0,0.0,0.0,0.0,0.0,0.0,0.0,0.0,0.0,0.0,0.0,0.0,0.0,0.0,0.0,0.0,0.0,0.0,0.0,0.0,0.0,0.0,0.0,0.0,0.0,0.0,0.0,0.0,0.0,0.0,0.0,0.0,0.0,0.0,0.0,0.0,0.0,0.0,0.0,0.0,0.0,0.0,0.0,0.0,0.0,0.0,0.0,0.0,0.0,0.0,0.0,0.0,0.0,0.0,0.0,0.0,0.0,0.0,0.0,0.0,0.0,0.0,0.0,0.0,0.0,0.0,0.0,0.0,0.0,0.0,0.0,0.0,0.0,0.0,0.0,0.0,0.0,0.0,0.0,0.0,0.0,0.0,0.0,0.0,0.0,0.0,0.0,0.0,0.0,0.0,0.0,0.0,0.0,0.0,0.0,0.0,0.0,0.0,0.0,0.0,0.0,0.0,0.0,0.0,0.0,0.0,0.0,0.0,0.0,0.0,0.0,0.0,0.0,0.0,0.0,0.0,0.0,0.0,0.0,0.0,0.0,0.0,0.0,0.0,0.0,0.0,0.0,0.0,0.0,0.0,0.0,0.0,0.0
0.24972604665824472,0.2572511038792612,0.26712018103752744,0.2802037566963998,0.29569840952471216,0.31173919568605957,0.3249655450617859,0.3313068824261045,0.3267834523054258,0.30830820368141487,0.2746147223374616,0.2265269352339838,0.16708151482165556,0.10117810972345963,0.03486504476668858,-0.025553062652628192,-0.07453534706428208,-0.10811361381088207,-0.12442723285850658,-0.12383926629450934,-0.10882380009025715,-0.08331893084413038,-0.05197092857376305,-0.01929789757081773,0.011116090395119823,0.03691468882484406,0.057343726751938114,0.07307932491411749,0.08583143771687111,0.09786882495521268,0.11109756004541148,0.12680986585450832,0.14530186858390337,0.16584764133425586,0.18703861936957855,0.20695217126962262,0.22391308367419674,0.2369058239172765,0.24586384495164063,0.25177457779589735,0.2561605080809514,0.2607971044836744,0.26711372025409746,0.275717203797662,0.2860384309099037,0.2966369177254098,0.30514448659354326,0.30890215497853996,0.3055705626436835,0.2934317720397277,0.2725965476889625,0.244198229821985,0.21048987430033375,0.17441971794385905,0.1388701353524038,0.10679637618708746,0.07993998115118858,0.05891441308257651,0.043268873244034646,0.03162137795742248,0.022636428166363277,0.014666479620386563,0.006429853809822883,-0.002731350732283082,-0.012769317362548984,-0.02309931155299021,-0.032957418711655584,-0.04164094814197446,-0.04873157470860081,-0.054007217984198094,-0.05804610275894972,-0.061467069978854566,-0.06490652028424986,0.0,0.0,0.0,0.0,0.0,0.0,0.0,0.0,0.0,0.0,0.0,0.0,0.0,0.0,0.0,0.0,0.0,0.0,0.0,0.0,0.0,0.0,0.0,0.0,0.0,0.0,0.0,0.0,0.0,0.0,0.0,0.0,0.0,0.0,0.0,0.0,0.0,0.0,0.0,0.0,0.0,0.0,0.0,0.0,0.0,0.0,0.0,0.0,0.0,0.0,0.0,0.0,0.0,0.0,0.0,0.0,0.0,0.0,0.0,0.0,0.0,0.0,0.0,0.0,0.0,0.0,0.0,0.0,0.0,0.0,0.0,0.0,0.0,0.0,0.0,0.0,0.0,0.0,0.0,0.0,0.0,0.0,0.0,0.0,0.0,0.0,0.0,0.0,0.0,0.0,0.0,0.0,0.0,0.0,0.0,0.0,0.0,0.0,0.0,0.0,0.0,0.0,0.0,0.0,0.0,0.0,0.0,0.0,0.0,0.0,0.0,0.0,0.0,0.0,0.0,0.0,0.0,0.0,0.0,0.0,0.0,0.0,0.0,0.0,0.0,0.0,0.0,0.0,0.0,0.0,0.0,0.0,0.0,0.0,0.0,0.0,0.0,0.0,0.0,0.0,0.0,0.0,0.0,0.0,0.0,0.0,0.0,0.0,0.0,0.0,0.0,0.0,0.0,0.0,0.0,0.0,0.0,0.0,0.0,0.0,0.0,0.0,0.0,0.0,0.0,0.0,0.0,0.0,0.0,0.0,0.0,0.0,0.0,0.0,0.0,0.0,0.0,0.0,0.0,0.0,0.0,0.0,0.0,0.0,0.0,0.0,0.0,0.0,0.0,0.0,0.0,0.0,0.0,0.0,0.0,0.0,0.0,0.0,0.0,0.0,0.0,0.0,0.0,0.0,0.0,0.0,0.0,0.0,0.0,0.0,0.0,0.0,0.0,0.0,0.0,0.0,0.0,0.0,0.0,0.0,0.0,0.0,0.0,0.0,0.0,0.0,0.0
0.11820877608539893,0.10947098187684427,0.09325204878998972,0.07268105436916994,0.05088594081089101,0.03038998181151203,0.013128576699793984,-4.333284911487768e-05,-0.009197124326958114,-0.015106054493865187,-0.018901605843764532,-0.021789276816780927,-0.024688639196076907,-0.028097941177287512,-0.032074252270950905,-0.036264572894065435,-0.04034418140554737,-0.04392386302830498,-0.04680291412520798,-0.04904245004803663,-0.05080753530058678,-0.05270748601992624,-0.055138462503134186,-0.05830909384626125,-0.06215641536679709,-0.06617898399915595,-0.07005377600775865,-0.07317274762356368,-0.07500803281526928,-0.07527038068555757,-0.07381871976627295,-0.07130325090047997,-0.06837596382073068,-0.06573997999967245,-0.06392840480158125,-0.06291839401612187,-0.06253724541971152,-0.06176109906925068,-0.059043755173792886,-0.05258642891760494,-0.04057667542221995,-0.022104951193859697,0.0030829469610959416,0.034136449659002976,0.06905473914887787,0.10483045205234853,0.13798591020437975,0.1650751446218685,0.1832446561177908,0.19069590721536067,0.18672708783609557,0.17253438431757084,0.1503140838997858,0.12306458824706659,0.0940553339463062,0.06615540139473537,0.04175979272787398,0.022164215822957477,0.007605479496381954,-0.0025852393227482483,-0.009674214317781656,-0.015123296320458062,-0.020210643043369506,-0.02577137666882908,-0.03208855253656495,-0.0389298343861706,-0.045798378454010615,-0.05209610578332404,-0.05739380158191079,-0.061591865750381655,-0.06491556116107501,-0.06796689844939847,-0.07137020984564543,0.0,0.0,0.0,0.0,0.0,0.0,0.0,0.0,0.0,0.0,0.0,0.0,0.0,0.0,0.0,0.0,0.0,0.0,0.0,0.0,0.0,0.0,0.0,0.0,0.0,0.0,0.0,0.0,0.0,0.0,0.0,0.0,0.0,0.0,0.0,0.0,0.0,0.0,0.0,0.0,0.0,0.0,0.0,0.0,0.0,0.0,0.0,0.0,0.0,0.0,0.0,0.0,0.0,0.0,0.0,0.0,0.0,0.0,0.0,0.0,0.0,0.0,0.0,0.0,0.0,0.0,0.0,0.0,0.0,0.0,0.0,0.0,0.0,0.0,0.0,0.0,0.0,0.0,0.0,0.0,0.0,0.0,0.0,0.0,0.0,0.0,0.0,0.0,0.0,0.0,0.0,0.0,0.0,0.0,0.0,0.0,0.0,0.0,0.0,0.0,0.0,0.0,0.0,0.0,0.0,0.0,0.0,0.0,0.0,0.0,0.0,0.0,0.0,0.0,0.0,0.0,0.0,0.0,0.0,0.0,0.0,0.0,0.0,0.0,0.0,0.0,0.0,0.0,0.0,0.0,0.0,0.0,0.0,0.0,0.0,0.0,0.0,0.0,0.0,0.0,0.0,0.0,0.0,0.0,0.0,0.0,0.0,0.0,0.0,0.0,0.0,0.0,0.0,0.0,0.0,0.0,0.0,0.0,0.0,0.0,0.0,0.0,0.0,0.0,0.0,0.0,0.0,0.0,0.0,0.0,0.0,0.0,0.0,0.0,0.0,0.0,0.0,0.0,0.0,0.0,0.0,0.0,0.0,0.0,0.0,0.0,0.0,0.0,0.0,0.0,0.0,0.0,0.0,0.0,0.0,0.0,0.0,0.0,0.0,0.0,0.0,0.0,0.0,0.0,0.0,0.0,0.0,0.0,0.0,0.0,0.0,0.0,0.0,0.0,0.0,0.0,0.0,0.0,0.0,0.0,0.0,0.0,0.0,0.0,0.0,0.0,0.0
-0.11532542467050474,-0.20985104157486045,-0.2958239974740168,-0.3658088649046143,-0.4146078215014349,-0.43991720583290805,-0.4423970654120744,-0.4255937108575886,-0.39481195478057807,-0.3561928833445071,-0.31564727589615604,-0.2778629747589197,-0.24608904776558507,-0.22155167237984053,-0.20383017503994566,-0.19137734595940398,-0.18204949271479404,-0.17411998477510554,-0.1661994789652799,-0.1576061123715507,-0.14832546370229552,-0.13871556250436679,-0.12942716737902069,-0.12082785845639438,-0.1129115351923055,-0.10527358144518707,-0.09721335008225182,-0.0880203894919601,-0.07717511188914486,-0.06456072919697993,-0.05055889995380454,-0.03574644110736915,-0.02156656509983384,-0.009436101170618447,-0.0006020477910621423,0.0041557815375779916,0.005241881671175552,0.0026968370589033073,-0.0026770491876846256,-0.00982042915583779,-0.01760797922564463,-0.02469873293834639,-0.030560246244774134,-0.03491257822058242,-0.03778424035707334,-0.03937173998886725,-0.03979111004549748,-0.039226771405182465,-0.0379576897407338,-0.03627252905189483,-0.034449961614919415,-0.032521763508937686,-0.030942588660761532,-0.029898821684088948,-0.029457146684917047,-0.029528183240971572,-0.029540436597761066,-0.029648354576434978,-0.029479542806469323,-0.02875399362355268,-0.02743474870521079,-0.02556836253961186,-0.02400697496514229,-0.023287848118852924,-0.0237459404839115,-0.025341314169450006,-0.02746432060777431,-0.029415794926378434,-0.030097211429496486,-0.028560013048535383,-0.024436666931691775,-0.01825750692283166,-0.01190393236848285,0.0,0.0,0.0,0.0,0.0,0.0,0.0,0.0,0.0,0.0,0.0,0.0,0.0,0.0,0.0,0.0,0.0,0.0,0.0,0.0,0.0,0.0,0.0,0.0,0.0,0.0,0.0,0.0,0.0,0.0,0.0,0.0,0.0,0.0,0.0,0.0,0.0,0.0,0.0,0.0,0.0,0.0,0.0,0.0,0.0,0.0,0.0,0.0,0.0,0.0,0.0,0.0,0.0,0.0,0.0,0.0,0.0,0.0,0.0,0.0,0.0,0.0,0.0,0.0,0.0,0.0,0.0,0.0,0.0,0.0,0.0,0.0,0.0,0.0,0.0,0.0,0.0,0.0,0.0,0.0,0.0,0.0,0.0,0.0,0.0,0.0,0.0,0.0,0.0,0.0,0.0,0.0,0.0,0.0,0.0,0.0,0.0,0.0,0.0,0.0,0.0,0.0,0.0,0.0,0.0,0.0,0.0,0.0,0.0,0.0,0.0,0.0,0.0,0.0,0.0,0.0,0.0,0.0,0.0,0.0,0.0,0.0,0.0,0.0,0.0,0.0,0.0,0.0,0.0,0.0,0.0,0.0,0.0,0.0,0.0,0.0,0.0,0.0,0.0,0.0,0.0,0.0,0.0,0.0,0.0,0.0,0.0,0.0,0.0,0.0,0.0,0.0,0.0,0.0,0.0,0.0,0.0,0.0,0.0,0.0,0.0,0.0,0.0,0.0,0.0,0.0,0.0,0.0,0.0,0.0,0.0,0.0,0.0,0.0,0.0,0.0,0.0,0.0,0.0,0.0,0.0,0.0,0.0,0.0,0.0,0.0,0.0,0.0,0.0,0.0,0.0,0.0,0.0,0.0,0.0,0.0,0.0,0.0,0.0,0.0,0.0,0.0,0.0,0.0,0.0,0.0,0.0,0.0,0.0,0.0,0.0,0.0,0.0,0.0,0.0,0.0,0.0,0.0,0.0,0.0,0.0,0.0,0.0,0.0,0.0,0.0,0.0
-0.5654984079514005,-0.5622493128377927,-0.5392912537018596,-0.5014319588037566,-0.45477796118352026,-0.40558724209901087,-0.3592320890604139,-0.31934732900617613,-0.287544811892966,-0.26354283807083284,-0.24567607624662138,-0.2316359035810717,-0.2191135110211972,-0.20635818183626312,-0.19247407914285206,-0.17742774772824005,-0.16185919101530208,-0.14664404538913473,-0.1325672532642747,-0.12007468904814209,-0.10917941920985867,-0.09955985061183308,-0.09062133089076127,-0.08175193572353937,-0.07251045465646147,-0.06274645676104629,-0.05265979977499928,-0.04260709507551028,-0.03301171869030268,-0.024205024995465618,-0.0163134943122339,-0.009259827831103474,-0.002681141897011106,0.0038955154275698393,0.010899913900593331,0.01855428375888726,0.02671566983691606,0.03497607101690137,0.04267216808953846,0.049044741269766046,0.05342206183000841,0.05534440644744018,0.054800273557057466,0.0521743930101134,0.04817116476489609,0.04364938465950408,0.03953510702723581,0.03621920816366515,0.03411492184221779,0.03336897714519597,0.03387670748899977,0.03561231577510124,0.03772960804745653,0.04003038737052057,0.042455638777655236,0.04500044888469215,0.04778416341027127,0.05035829977120748,0.05264148037439765,0.054576329902340535,0.056124190280384526,0.05733014772534108,0.05804682512210131,0.05841863942370836,0.05864782033465269,0.05892082483394913,0.059368560560975045,0.059895706738220214,0.06049117566295055,0.06111663243220222,0.061717459387513725,0.06222172289399292,0.06255460268252938,0.0,0.0,0.0,0.0,0.0,0.0,0.0,0.0,0.0,0.0,0.0,0.0,0.0,0.0,0.0,0.0,0.0,0.0,0.0,0.0,0.0,0.0,0.0,0.0,0.0,0.0,0.0,0.0,0.0,0.0,0.0,0.0,0.0,0.0,0.0,0.0,0.0,0.0,0.0,0.0,0.0,0.0,0.0,0.0,0.0,0.0,0.0,0.0,0.0,0.0,0.0,0.0,0.0,0.0,0.0,0.0,0.0,0.0,0.0,0.0,0.0,0.0,0.0,0.0,0.0,0.0,0.0,0.0,0.0,0.0,0.0,0.0,0.0,0.0,0.0,0.0,0.0,0.0,0.0,0.0,0.0,0.0,0.0,0.0,0.0,0.0,0.0,0.0,0.0,0.0,0.0,0.0,0.0,0.0,0.0,0.0,0.0,0.0,0.0,0.0,0.0,0.0,0.0,0.0,0.0,0.0,0.0,0.0,0.0,0.0,0.0,0.0,0.0,0.0,0.0,0.0,0.0,0.0,0.0,0.0,0.0,0.0,0.0,0.0,0.0,0.0,0.0,0.0,0.0,0.0,0.0,0.0,0.0,0.0,0.0,0.0,0.0,0.0,0.0,0.0,0.0,0.0,0.0,0.0,0.0,0.0,0.0,0.0,0.0,0.0,0.0,0.0,0.0,0.0,0.0,0.0,0.0,0.0,0.0,0.0,0.0,0.0,0.0,0.0,0.0,0.0,0.0,0.0,0.0,0.0,0.0,0.0,0.0,0.0,0.0,0.0,0.0,0.0,0.0,0.0,0.0,0.0,0.0,0.0,0.0,0.0,0.0,0.0,0.0,0.0,0.0,0.0,0.0,0.0,0.0,0.0,0.0,0.0,0.0,0.0,0.0,0.0,0.0,0.0,0.0,0.0,0.0,0.0,0.0,0.0,0.0,0.0,0.0,0.0,0.0,0.0,0.0,0.0,0.0,0.0,0.0,0.0,0.0,0.0,0.0,0.0,0.0
0.16737901325631668,0.1663640396270584,0.15525377397383477,0.13655315483399103,0.11336874070755401,0.08886620278044355,0.06557890762277818,0.045617463007897936,0.02991875555074932,0.018437224185713457,0.010353392304570426,0.0043083193015895326,-0.0009102406476107752,-0.006328672065814844,-0.012497051107262786,-0.01944027847627933,-0.026785094351016864,-0.0339004912821224,-0.04019132762160333,-0.04530175567260605,-0.049233949257129095,-0.052291656341953555,-0.05512980331533745,-0.05835906041865406,-0.06239952551752619,-0.06732316350822037,-0.07270340652566716,-0.07798746699494002,-0.08234293440935536,-0.08498715985752103,-0.08541237775931164,-0.0834057681063908,-0.07953442534124859,-0.07460112910271174,-0.06956239119740715,-0.0652359464792483,-0.0618482107363146,-0.05934073089119329,-0.05678175126889886,-0.05263787183430293,-0.04505951519918495,-0.032107887968947514,-0.012799049733248663,0.013104162083647891,0.044687591397016335,0.0798949622350048,0.11576302994598671,0.14897354707326238,0.1763436084402693,0.195410502195492,0.20484943966919453,0.20443106283918142,0.19571419774494958,0.18096895810561875,0.1629322656882465,0.14426729702130037,0.126945256254278,0.11235300417015169,0.10076247603621583,0.09158644891468007,0.08368515437340625,0.07573043217313598,0.06669125986090789,0.05601879507168062,0.04377578399049758,0.030559667617219618,0.017284724208754754,0.004871950007001286,-0.005993101158449591,-0.015060918318279812,-0.022565819138967033,-0.029087622561964913,-0.03547868554302095,0.0,0.0,0.0,0.0,0.0,0.0,0.0,0.0,0.0,0.0,0.0,0.0,0.0,0.0,0.0,0.0,0.0,0.0,0.0,0.0,0.0,0.0,0.0,0.0,0.0,0.0,0.0,0.0,0.0,0.0,0.0,0.0,0.0,0.0,0.0,0.0,0.0,0.0,0.0,0.0,0.0,0.0,0.0,0.0,0.0,0.0,0.0,0.0,0.0,0.0,0.0,0.0,0.0,0.0,0.0,0.0,0.0,0.0,0.0,0.0,0.0,0.0,0.0,0.0,0.0,0.0,0.0,0.0,0.0,0.0,0.0,0.0,0.0,0.0,0.0,0.0,0.0,0.0,0.0,0.0,0.0,0.0,0.0,0.0,0.0,0.0,0.0,0.0,0.0,0.0,0.0,0.0,0.0,0.0,0.0,0.0,0.0,0.0,0.0,0.0,0.0,0.0,0.0,0.0,0.0,0.0,0.0,0.0,0.0,0.0,0.0,0.0,0.0,0.0,0.0,0.0,0.0,0.0,0.0,0.0,0.0,0.0,0.0,0.0,0.0,0.0,0.0,0.0,0.0,0.0,0.0,0.0,0.0,0.0,0.0,0.0,0.0,0.0,0.0,0.0,0.0,0.0,0.0,0.0,0.0,0.0,0.0,0.0,0.0,0.0,0.0,0.0,0.0,0.0,0.0,0.0,0.0,0.0,0.0,0.0,0.0,0.0,0.0,0.0,0.0,0.0,0.0,0.0,0.0,0.0,0.0,0.0,0.0,0.0,0.0,0.0,0.0,0.0,0.0,0.0,0.0,0.0,0.0,0.0,0.0,0.0,0.0,0.0,0.0,0.0,0.0,0.0,0.0,0.0,0.0,0.0,0.0,0.0,0.0,0.0,0.0,0.0,0.0,0.0,0.0,0.0,0.0,0.0,0.0,0.0,0.0,0.0,0.0,0.0,0.0,0.0,0.0,0.0,0.0,0.0,0.0,0.0,0.0,0.0,0.0,0.0,0.0
-0.4261972411090467,-0.4377734094921587,-0.42666231533730065,-0.3933039281946842,-0.34058031064672256,-0.27366272330505864,-0.19938176419919737,-0.1252427649397743,-0.05887955833613346,-0.006703032999733,0.02669517486820802,0.03900988109376397,0.03046558650955724,0.0033289088503346575,-0.03815514247937326,-0.08857590494092776,-0.1421713754828241,-0.1937782708412553,-0.23918587219548973,-0.2759540906567035,-0.30357049503997635,-0.32335263205941217,-0.338342707883324,-0.3515266007360374,-0.36596720597689264,-0.38371549148585027,-0.40525460548581455,-0.4295348000367094,-0.45354459033378236,-0.4735473209410086,-0.48574663278514496,-0.487156578912217,-0.4763764194269982,-0.4536402812685955,-0.42099257616967495,-0.3817742442355794,-0.33994218367306506,-0.2993802453665852,-0.2631036379133603,-0.23299935435294505,-0.2096945190214146,-0.19272778843391317,-0.18091438951193625,-0.17271408256858697,-0.16660813638847027,-0.1613483884118239,-0.15606625965424734,-0.15016796862769585,-0.14362139704639448,-0.13632256276317084,-0.12823734146737786,-0.11940473087458155,-0.10976474357153874,-0.09996797924284717,-0.0902883986775345,-0.08099137456349333,-0.07227975992018501,-0.06408252371885487,-0.056286000584929004,-0.04810843991284878,-0.038272747344806374,-0.025154788965788513,-0.007086454274482035,0.017272113793854998,0.048439767705882104,0.08580629329689715,0.12748873320127052,0.17040928018008697,0.21072114695209088,0.24451645283811638,0.2684108552034945,0.28013225536832953,0.27886180565841256,0.0,0.0,0.0,0.0,0.0,0.0,0.0,0.0,0.0,0.0,0.0,0.0,0.0,0.0,0.0,0.0,0.0,0.0,0.0,0.0,0.0,0.0,0.0,0.0,0.0,0.0,0.0,0.0,0.0,0.0,0.0,0.0,0.0,0.0,0.0,0.0,0.0,0.0,0.0,0.0,0.0,0.0,0.0,0.0,0.0,0.0,0.0,0.0,0.0,0.0,0.0,0.0,0.0,0.0,0.0,0.0,0.0,0.0,0.0,0.0,0.0,0.0,0.0,0.0,0.0,0.0,0.0,0.0,0.0,0.0,0.0,0.0,0.0,0.0,0.0,0.0,0.0,0.0,0.0,0.0,0.0,0.0,0.0,0.0,0.0,0.0,0.0,0.0,0.0,0.0,0.0,0.0,0.0,0.0,0.0,0.0,0.0,0.0,0.0,0.0,0.0,0.0,0.0,0.0,0.0,0.0,0.0,0.0,0.0,0.0,0.0,0.0,0.0,0.0,0.0,0.0,0.0,0.0,0.0,0.0,0.0,0.0,0.0,0.0,0.0,0.0,0.0,0.0,0.0,0.0,0.0,0.0,0.0,0.0,0.0,0.0,0.0,0.0,0.0,0.0,0.0,0.0,0.0,0.0,0.0,0.0,0.0,0.0,0.0,0.0,0.0,0.0,0.0,0.0,0.0,0.0,0.0,0.0,0.0,0.0,0.0,0.0,0.0,0.0,0.0,0.0,0.0,0.0,0.0,0.0,0.0,0.0,0.0,0.0,0.0,0.0,0.0,0.0,0.0,0.0,0.0,0.0,0.0,0.0,0.0,0.0,0.0,0.0,0.0,0.0,0.0,0.0,0.0,0.0,0.0,0.0,0.0,0.0,0.0,0.0,0.0,0.0,0.0,0.0,0.0,0.0,0.0,0.0,0.0,0.0,0.0,0.0,0.0,0.0,0.0,0.0,0.0,0.0,0.0,0.0,0.0,0.0,0.0,0.0,0.0,0.0,0.0
0.22931532888279324,0.2297895595020597,0.22096138842892588,0.20515967351356276,0.18522861095715318,0.1640607298831788,0.1441083100249173,0.12726581755731303,0.11432527462223098,0.10513618362986173,0.09880613088356435,0.09403654381477117,0.0894505635771129,0.08384295124335198,0.07649625325626071,0.0673554945435217,0.057146822186716,0.04712552293618118,0.038997582684167226,0.03465884773894652,0.03590485820347904,0.04423057244424475,0.06020087805161594,0.08350163923198625,0.11276741053535476,0.1456519357831475,0.17907453457171615,0.20962554002854228,0.23407126032697131,0.24983670961450452,0.255399013362816,0.25039195091377175,0.23595064676144725,0.214240454053874,0.18810534167535212,0.16055094730094846,0.1341833978868662,0.11095296994205713,0.0918745456592052,0.07702263526777707,0.06570288123908088,0.05676586647408765,0.04889847631045975,0.04105906841420182,0.03263686216489075,0.023511501921530776,0.013952154783793424,0.004542194512114884,-0.0042047583831735106,-0.011960443416571686,-0.01867987739601933,-0.024656050858743422,-0.030158809257147784,-0.035728602464450906,-0.04179875697052064,-0.04852080122846334,-0.055694874652476224,-0.06274133728881043,-0.06910905269019628,-0.07436575085744611,-0.07836172506090734,-0.08126682918053015,-0.0836380789726563,-0.08629597125703391,-0.09001596168682845,-0.09520992495697082,-0.10161093888467071,-0.10826587189193573,-0.113578287110088,-0.11553043488173328,-0.11205812485303432,-0.10144289655034568,-0.08287064053232597,0.0,0.0,0.0,0.0,0.0,0.0,0.0,0.0,0.0,0.0,0.0,0.0,0.0,0.0,0.0,0.0,0.0,0.0,0.0,0.0,0.0,0.0,0.0,0.0,0.0,0.0,0.0,0.0,0.0,0.0,0.0,0.0,0.0,0.0,0.0,0.0,0.0,0.0,0.0,0.0,0.0,0.0,0.0,0.0,0.0,0.0,0.0,0.0,0.0,0.0,0.0,0.0,0.0,0.0,0.0,0.0,0.0,0.0,0.0,0.0,0.0,0.0,0.0,0.0,0.0,0.0,0.0,0.0,0.0,0.0,0.0,0.0,0.0,0.0,0.0,0.0,0.0,0.0,0.0,0.0,0.0,0.0,0.0,0.0,0.0,0.0,0.0,0.0,0.0,0.0,0.0,0.0,0.0,0.0,0.0,0.0,0.0,0.0,0.0,0.0,0.0,0.0,0.0,0.0,0.0,0.0,0.0,0.0,0.0,0.0,0.0,0.0,0.0,0.0,0.0,0.0,0.0,0.0,0.0,0.0,0.0,0.0,0.0,0.0,0.0,0.0,0.0,0.0,0.0,0.0,0.0,0.0,0.0,0.0,0.0,0.0,0.0,0.0,0.0,0.0,0.0,0.0,0.0,0.0,0.0,0.0,0.0,0.0,0.0,0.0,0.0,0.0,0.0,0.0,0.0,0.0,0.0,0.0,0.0,0.0,0.0,0.0,0.0,0.0,0.0,0.0,0.0,0.0,0.0,0.0,0.0,0.0,0.0,0.0,0.0,0.0,0.0,0.0,0.0,0.0,0.0,0.0,0.0,0.0,0.0,0.0,0.0,0.0,0.0,0.0,0.0,0.0,0.0,0.0,0.0,0.0,0.0,0.0,0.0,0.0,0.0,0.0,0.0,0.0,0.0,0.0,0.0,0.0,0.0,0.0,0.0,0.0,0.0,0.0,0.0,0.0,0.0,0.0,0.0,0.0,0.0,0.0,0.0,0.0,0.0,0.0,0.0
0.17637810460190645,0.16458457230702234,0.14541034125770125,0.12176161331890992,0.09667974356182336,0.0730349121808808,0.05263864089724592,0.0363428433192553,0.024025425693811737,0.01483124069380392,0.00766730426011919,0.0011700027677742854,-0.005705589167209373,-0.013542840656344661,-0.022386754943452,-0.03169610860328268,-0.040817254482826686,-0.04893198281817546,-0.05533729199967505,-0.05960475058070792,-0.06160015053369679,-0.06171142335126089,-0.06052371017651877,-0.05876557562097248,-0.057138887388303014,-0.056037078257666975,-0.055742454738557275,-0.05596978174093084,-0.055978536397388104,-0.05467302419589814,-0.05065894655471506,-0.042990315120314836,-0.030997601478702487,-0.014721240881428328,0.0048925560920408786,0.026068322200698834,0.04590307330257559,0.061094313446285735,0.068257109390238,0.0644581363799799,0.047864469697773616,0.01780873465436751,-0.024587412745462653,-0.07652649298914439,-0.13381007235335837,-0.19106362617311118,-0.24330560792262942,-0.28607736357363056,-0.31618618126947284,-0.3320782810866967,-0.3334569455777271,-0.3224894456012511,-0.302546195185164,-0.277688943360315,-0.251877417517687,-0.22800715864322454,-0.20809467888441044,-0.19269503826926757,-0.18109475590667656,-0.17167655394867745,-0.16244880932060543,-0.15158886954100648,-0.1379430814869421,-0.12129315649682762,-0.10239238879929595,-0.08288035063150004,-0.06459976722646513,-0.04938523899418699,-0.03864225690449391,-0.03310822364991443,-0.0329943945335411,-0.03744725396009413,-0.045162509891477236,0.0,0.0,0.0,0.0,0.0,0.0,0.0,0.0,0.0,0.0,0.0,0.0,0.0,0.0,0.0,0.0,0.0,0.0,0.0,0.0,0.0,0.0,0.0,0.0,0.0,0.0,0.0,0.0,0.0,0.0,0.0,0.0,0.0,0.0,0.0,0.0,0.0,0.0,0.0,0.0,0.0,0.0,0.0,0.0,0.0,0.0,0.0,0.0,0.0,0.0,0.0,0.0,0.0,0.0,0.0,0.0,0.0,0.0,0.0,0.0,0.0,0.0,0.0,0.0,0.0,0.0,0.0,0.0,0.0,0.0,0.0,0.0,0.0,0.0,0.0,0.0,0.0,0.0,0.0,0.0,0.0,0.0,0.0,0.0,0.0,0.0,0.0,0.0,0.0,0.0,0.0,0.0,0.0,0.0,0.0,0.0,0.0,0.0,0.0,0.0,0.0,0.0,0.0,0.0,0.0,0.0,0.0,0.0,0.0,0.0,0.0,0.0,0.0,0.0,0.0,0.0,0.0,0.0,0.0,0.0,0.0,0.0,0.0,0.0,0.0,0.0,0.0,0.0,0.0,0.0,0.0,0.0,0.0,0.0,0.0,0.0,0.0,0.0,0.0,0.0,0.0,0.0,0.0,0.0,0.0,0.0,0.0,0.0,0.0,0.0,0.0,0.0,0.0,0.0,0.0,0.0,0.0,0.0,0.0,0.0,0.0,0.0,0.0,0.0,0.0,0.0,0.0,0.0,0.0,0.0,0.0,0.0,0.0,0.0,0.0,0.0,0.0,0.0,0.0,0.0,0.0,0.0,0.0,0.0,0.0,0.0,0.0,0.0,0.0,0.0,0.0,0.0,0.0,0.0,0.0,0.0,0.0,0.0,0.0,0.0,0.0,0.0,0.0,0.0,0.0,0.0,0.0,0.0,0.0,0.0,0.0,0.0,0.0,0.0,0.0,0.0,0.0,0.0,0.0,0.0,0.0,0.0,0.0,0.0,0.0,0.0,0.0
-0.3224894456012511,-0.302546195185164,-0.277688943360315,-0.251877417517687,-0.22800715864322454,-0.20809467888441044,-0.19269503826926757,-0.18109475590667656,-0.17167655394867745,-0.16244880932060543,-0.15158886954100648,-0.1379430814869421,-0.12129315649682762,-0.10239238879929595,-0.08288035063150004,-0.06459976722646513,-0.04938523899418699,-0.03864225690449391,-0.03310822364991443,-0.0329943945335411,-0.03744725396009413,-0.045162509891477236,-0.054609341113306085,-0.06435927802203928,-0.07350703044107298,-0.08133766493226116,-0.08759426532313751,-0.09230481524218674,-0.09561033239416417,-0.09769904157620751,-0.09839449851248526,-0.09733201686153134,-0.09411022086752015,-0.08861315025414279,-0.0815021438964689,-0.07420720924195147,-0.06932637267932598,-0.07043101817660628,-0.08161596811412146,-0.10686845470586015,-0.14878292121151787,-0.2080037652734899,-0.2824626550413573,-0.3671692676515327,-0.4542864349275785,-0.5349764526757742,-0.5999045283656572,-0.6409825906719264,-0.652722567188944,-0.6324881224135472,-0.5830325929531678,-0.5101189053045515,-0.42210915777579266,-0.3284907796696073,-0.23772419389437652,-0.15738654933101276,-0.09164930405811803,-0.04134161142679399,-0.0042589921502706836,0.02426006806783026,0.049014363404366594,0.0745712199211027,0.10387235609390512,0.13761767351076826,0.17446346476099045,0.21090628719459217,0.24285632097455154,0.26654864296154596,0.2794943391718072,0.28114990248045973,0.27268943628469683,0.25685221410480025,0.2371168581885701,0.0,0.0,0.0,0.0,0.0,0.0,0.0,0.0,0.0,0.0,0.0,0.0,0.0,0.0,0.0,0.0,0.0,0.0,0.0,0.0,0.0,0.0,0.0,0.0,0.0,0.0,0.0,0.0,0.0,0.0,0.0,0.0,0.0,0.0,0.0,0.0,0.0,0.0,0.0,0.0,0.0,0.0,0.0,0.0,0.0,0.0,0.0,0.0,0.0,0.0,0.0,0.0,0.0,0.0,0.0,0.0,0.0,0.0,0.0,0.0,0.0,0.0,0.0,0.0,0.0,0.0,0.0,0.0,0.0,0.0,0.0,0.0,0.0,0.0,0.0,0.0,0.0,0.0,0.0,0.0,0.0,0.0,0.0,0.0,0.0,0.0,0.0,0.0,0.0,0.0,0.0,0.0,0.0,0.0,0.0,0.0,0.0,0.0,0.0,0.0,0.0,0.0,0.0,0.0,0.0,0.0,0.0,0.0,0.0,0.0,0.0,0.0,0.0,0.0,0.0,0.0,0.0,0.0,0.0,0.0,0.0,0.0,0.0,0.0,0.0,0.0,0.0,0.0,0.0,0.0,0.0,0.0,0.0,0.0,0.0,0.0,0.0,0.0,0.0,0.0,0.0,0.0,0.0,0.0,0.0,0.0,0.0,0.0,0.0,0.0,0.0,0.0,0.0,0.0,0.0,0.0,0.0,0.0,0.0,0.0,0.0,0.0,0.0,0.0,0.0,0.0,0.0,0.0,0.0,0.0,0.0,0.0,0.0,0.0,0.0,0.0,0.0,0.0,0.0,0.0,0.0,0.0,0.0,0.0,0.0,0.0,0.0,0.0,0.0,0.0,0.0,0.0,0.0,0.0,0.0,0.0,0.0,0.0,0.0,0.0,0.0,0.0,0.0,0.0,0.0,0.0,0.0,0.0,0.0,0.0,0.0,0.0,0.0,0.0,0.0,0.0,0.0,0.0,0.0,0.0,0.0,0.0,0.0,0.0,0.0,0.0,0.0
-0.5101189053045515,-0.42210915777579266,-0.3284907796696073,-0.23772419389437652,-0.15738654933101276,-0.09164930405811803,-0.04134161142679399,-0.0042589921502706836,0.02426006806783026,0.049014363404366594,0.0745712199211027,0.10387235609390512,0.13761767351076826,0.17446346476099045,0.21090628719459217,0.24285632097455154,0.26654864296154596,0.2794943391718072,0.28114990248045973,0.27268943628469683,0.25685221410480025,0.2371168581885701,0.21684238851394944,0.19861084245099106,0.18359744541573986,0.17181601409081504,0.16240281222442288,0.15419043785609168,0.14632738567974352,0.13850753604199212,0.13124722737685454,0.1254888341721163,0.1220142184738058,0.12079049175568919,0.12038139309837241,0.11791754356088292,0.10929025043205441,0.08983799909151992,0.05532750305053128,0.0030606094359301632,-0.0671328666578252,-0.15245294345580906,-0.2472304529438005,-0.34315393035356,-0.43203988016906847,-0.5056572340637222,-0.5575970515955903,-0.584298904979121,-0.5845554725534314,-0.5625494874903466,-0.5240026517960045,-0.47598842008756603,-0.4256057487066409,-0.37795880564701545,-0.3377254301795923,-0.3065321374438599,-0.28371986810051913,-0.2669125924341608,-0.2522899714798074,-0.23727261177938389,-0.21996127241716618,-0.1998378891440182,-0.17767706975046754,-0.15478555824894544,-0.13320738999138018,-0.1145849920667546,-0.09973936580173619,-0.08844154706677425,-0.07950309832382914,-0.07114152075012369,-0.06187873145211767,-0.0508604526523102,-0.03811207311347333,0.0,0.0,0.0,0.0,0.0,0.0,0.0,0.0,0.0,0.0,0.0,0.0,0.0,0.0,0.0,0.0,0.0,0.0,0.0,0.0,0.0,0.0,0.0,0.0,0.0,0.0,0.0,0.0,0.0,0.0,0.0,0.0,0.0,0.0,0.0,0.0,0.0,0.0,0.0,0.0,0.0,0.0,0.0,0.0,0.0,0.0,0.0,0.0,0.0,0.0,0.0,0.0,0.0,0.0,0.0,0.0,0.0,0.0,0.0,0.0,0.0,0.0,0.0,0.0,0.0,0.0,0.0,0.0,0.0,0.0,0.0,0.0,0.0,0.0,0.0,0.0,0.0,0.0,0.0,0.0,0.0,0.0,0.0,0.0,0.0,0.0,0.0,0.0,0.0,0.0,0.0,0.0,0.0,0.0,0.0,0.0,0.0,0.0,0.0,0.0,0.0,0.0,0.0,0.0,0.0,0.0,0.0,0.0,0.0,0.0,0.0,0.0,0.0,0.0,0.0,0.0,0.0,0.0,0.0,0.0,0.0,0.0,0.0,0.0,0.0,0.0,0.0,0.0,0.0,0.0,0.0,0.0,0.0,0.0,0.0,0.0,0.0,0.0,0.0,0.0,0.0,0.0,0.0,0.0,0.0,0.0,0.0,0.0,0.0,0.0,0.0,0.0,0.0,0.0,0.0,0.0,0.0,0.0,0.0,0.0,0.0,0.0,0.0,0.0,0.0,0.0,0.0,0.0,0.0,0.0,0.0,0.0,0.0,0.0,0.0,0.0,0.0,0.0,0.0,0.0,0.0,0.0,0.0,0.0,0.0,0.0,0.0,0.0,0.0,0.0,0.0,0.0,0.0,0.0,0.0,0.0,0.0,0.0,0.0,0.0,0.0,0.0,0.0,0.0,0.0,0.0,0.0,0.0,0.0,0.0,0.0,0.0,0.0,0.0,0.0,0.0,0.0,0.0,0.0,0.0,0.0,0.0,0.0,0.0,0.0,0.0,0.0
-0.47598842008756603,-0.4256057487066409,-0.37795880564701545,-0.3377254301795923,-0.3065321374438599,-0.28371986810051913,-0.2669125924341608,-0.2522899714798074,-0.23727261177938389,-0.21996127241716618,-0.1998378891440182,-0.17767706975046754,-0.15478555824894544,-0.13320738999138018,-0.1145849920667546,-0.09973936580173619,-0.08844154706677425,-0.07950309832382914,-0.07114152075012369,-0.06187873145211767,-0.0508604526523102,-0.03811207311347333,-0.024529391034860015,-0.011416731486527927,-0.00034107438025271914,0.0075933828116384675,0.012217400839827579,0.014423288330852239,0.016252721807563406,0.01999328388694567,0.02755368722826213,0.03966582805997355,0.05503017854857844,0.07078806794117663,0.08205399364164877,0.08283213686645391,0.06711425528011948,0.029770704950791926,-0.03105356209566336,-0.1141322552604446,-0.21470078557212488,-0.3250077323665685,-0.43558040488913047,-0.5367969078308198,-0.6203824357892286,-0.681001307440239,-0.7171297200132564,-0.7308310518486227,-0.7280516048127482,-0.7157437764812746,-0.7007357150058051,-0.6882288832072664,-0.680726414149727,-0.677986694990815,-0.6767601584631708,-0.6721950558320585,-0.6593280464012762,-0.6347180592847819,-0.5969513268308926,-0.5470696725922709,-0.48834794345400406,-0.4255168383595622,-0.3640142250894032,-0.3080727389673792,-0.26040204979617915,-0.22186164405685704,-0.19170563031784818,-0.1685895994242426,-0.15004861974833614,-0.13393206805050156,-0.11864159241360851,-0.10328335752211895,-0.08787042024393464,0.0,0.0,0.0,0.0,0.0,0.0,0.0,0.0,0.0,0.0,0.0,0.0,0.0,0.0,0.0,0.0,0.0,0.0,0.0,0.0,0.0,0.0,0.0,0.0,0.0,0.0,0.0,0.0,0.0,0.0,0.0,0.0,0.0,0.0,0.0,0.0,0.0,0.0,0.0,0.0,0.0,0.0,0.0,0.0,0.0,0.0,0.0,0.0,0.0,0.0,0.0,0.0,0.0,0.0,0.0,0.0,0.0,0.0,0.0,0.0,0.0,0.0,0.0,0.0,0.0,0.0,0.0,0.0,0.0,0.0,0.0,0.0,0.0,0.0,0.0,0.0,0.0,0.0,0.0,0.0,0.0,0.0,0.0,0.0,0.0,0.0,0.0,0.0,0.0,0.0,0.0,0.0,0.0,0.0,0.0,0.0,0.0,0.0,0.0,0.0,0.0,0.0,0.0,0.0,0.0,0.0,0.0,0.0,0.0,0.0,0.0,0.0,0.0,0.0,0.0,0.0,0.0,0.0,0.0,0.0,0.0,0.0,0.0,0.0,0.0,0.0,0.0,0.0,0.0,0.0,0.0,0.0,0.0,0.0,0.0,0.0,0.0,0.0,0.0,0.0,0.0,0.0,0.0,0.0,0.0,0.0,0.0,0.0,0.0,0.0,0.0,0.0,0.0,0.0,0.0,0.0,0.0,0.0,0.0,0.0,0.0,0.0,0.0,0.0,0.0,0.0,0.0,0.0,0.0,0.0,0.0,0.0,0.0,0.0,0.0,0.0,0.0,0.0,0.0,0.0,0.0,0.0,0.0,0.0,0.0,0.0,0.0,0.0,0.0,0.0,0.0,0.0,0.0,0.0,0.0,0.0,0.0,0.0,0.0,0.0,0.0,0.0,0.0,0.0,0.0,0.0,0.0,0.0,0.0,0.0,0.0,0.0,0.0,0.0,0.0,0.0,0.0,0.0,0.0,0.0,0.0,0.0,0.0,0.0,0.0,0.0,0.0
-0.6882288832072664,-0.680726414149727,-0.677986694990815,-0.6767601584631708,-0.6721950558320585,-0.6593280464012762,-0.6347180592847819,-0.5969513268308926,-0.5470696725922709,-0.48834794345400406,-0.4255168383595622,-0.3640142250894032,-0.3080727389673792,-0.26040204979617915,-0.22186164405685704,-0.19170563031784818,-0.1685895994242426,-0.15004861974833614,-0.13393206805050156,-0.11864159241360851,-0.10328335752211895,-0.08787042024393464,-0.07202356218910765,-0.055284561295350275,-0.03670982465533127,-0.014861084726389757,0.011716860011658595,0.044783427699823755,0.0853101482955821,0.1331034735687766,0.18644188907052098,0.24166847984298245,0.29446196922306267,0.33962722719887134,0.37209202509273764,0.38774486286743165,0.38375613880518095,0.3603591381775336,0.3199564073631386,0.26712282034651397,0.20795881481423154,0.1493668082742365,0.09751240779039545,0.05782353184242016,0.034095998193560344,0.02817276676103141,0.04064538010653063,0.06857075036163483,0.10852077048821103,0.15617934476926737,0.2068608031153443,0.25656343624077294,0.30082910028474436,0.3372947578257578,0.3652425475901442,0.38554883946965707,0.4005721968512041,0.4126256537258852,0.42469347664892176,0.4390876793247354,0.4567722449864392,0.477069149265621,0.49747948680283954,0.5148858860939897,0.5259798854875221,0.5279956505032213,0.5191599040892252,0.49939909745247985,0.4702766979095602,0.43461493277043556,0.395923993047988,0.3576513630013051,0.3230551226837548,0.0,0.0,0.0,0.0,0.0,0.0,0.0,0.0,0.0,0.0,0.0,0.0,0.0,0.0,0.0,0.0,0.0,0.0,0.0,0.0,0.0,0.0,0.0,0.0,0.0,0.0,0.0,0.0,0.0,0.0,0.0,0.0,0.0,0.0,0.0,0.0,0.0,0.0,0.0,0.0,0.0,0.0,0.0,0.0,0.0,0.0,0.0,0.0,0.0,0.0,0.0,0.0,0.0,0.0,0.0,0.0,0.0,0.0,0.0,0.0,0.0,0.0,0.0,0.0,0.0,0.0,0.0,0.0,0.0,0.0,0.0,0.0,0.0,0.0,0.0,0.0,0.0,0.0,0.0,0.0,0.0,0.0,0.0,0.0,0.0,0.0,0.0,0.0,0.0,0.0,0.0,0.0,0.0,0.0,0.0,0.0,0.0,0.0,0.0,0.0,0.0,0.0,0.0,0.0,0.0,0.0,0.0,0.0,0.0,0.0,0.0,0.0,0.0,0.0,0.0,0.0,0.0,0.0,0.0,0.0,0.0,0.0,0.0,0.0,0.0,0.0,0.0,0.0,0.0,0.0,0.0,0.0,0.0,0.0,0.0,0.0,0.0,0.0,0.0,0.0,0.0,0.0,0.0,0.0,0.0,0.0,0.0,0.0,0.0,0.0,0.0,0.0,0.0,0.0,0.0,0.0,0.0,0.0,0.0,0.0,0.0,0.0,0.0,0.0,0.0,0.0,0.0,0.0,0.0,0.0,0.0,0.0,0.0,0.0,0.0,0.0,0.0,0.0,0.0,0.0,0.0,0.0,0.0,0.0,0.0,0.0,0.0,0.0,0.0,0.0,0.0,0.0,0.0,0.0,0.0,0.0,0.0,0.0,0.0,0.0,0.0,0.0,0.0,0.0,0.0,0.0,0.0,0.0,0.0,0.0,0.0,0.0,0.0,0.0,0.0,0.0,0.0,0.0,0.0,0.0,0.0,0.0,0.0,0.0,0.0,0.0,0.0
0.4390876793247354,0.4567722449864392,0.477069149265621,0.49747948680283954,0.5148858860939897,0.5259798854875221,0.5279956505032213,0.5191599040892252,0.49939909745247985,0.4702766979095602,0.43461493277043556,0.395923993047988,0.3576513630013051,0.3230551226837548,0.2947503968634458,0.2746210057349206,0.2638523355927547,0.262892774041163,0.27186725103663917,0.29025392024569124,0.31675160571817035,0.34901663483119655,0.3831589623318469,0.4146699408188736,0.43775366762765067,0.446187882426719,0.43418093406963837,0.396924924526401,0.3331268683013469,0.24416748913273145,0.13492525675493283,0.013524942517494627,-0.1098921746982826,-0.2233687710504812,-0.31591898202044444,-0.37885633992344797,-0.40713104903464914,-0.40033934880449085,-0.36190053235258035,-0.29894617016780073,-0.22083281333359092,-0.1375312501664051,-0.05842024068642232,0.01022044956636866,0.06477408333727826,0.10471118006976202,0.13206854870183896,0.15000684323010252,0.16336087724860873,0.17593519455384918,0.19029021324658377,0.20739115644442174,0.226097397339705,0.24533024863115882,0.26273122968173385,0.2758566580909593,0.28271376418700456,0.2815471383846241,0.272998112686824,0.2580131983697401,0.23835303531231003,0.21633379645863243,0.19407585893987075,0.17458183233247096,0.1599176094270796,0.15149035764840424,0.14995382873026034,0.15495607095487524,0.16608688342934877,0.1820690783157376,0.2012534182833461,0.22182758545714218,0.24166756138094822,0.0,0.0,0.0,0.0,0.0,0.0,0.0,0.0,0.0,0.0,0.0,0.0,0.0,0.0,0.0,0.0,0.0,0.0,0.0,0.0,0.0,0.0,0.0,0.0,0.0,0.0,0.0,0.0,0.0,0.0,0.0,0.0,0.0,0.0,0.0,0.0,0.0,0.0,0.0,0.0,0.0,0.0,0.0,0.0,0.0,0.0,0.0,0.0,0.0,0.0,0.0,0.0,0.0,0.0,0.0,0.0,0.0,0.0,0.0,0.0,0.0,0.0,0.0,0.0,0.0,0.0,0.0,0.0,0.0,0.0,0.0,0.0,0.0,0.0,0.0,0.0,0.0,0.0,0.0,0.0,0.0,0.0,0.0,0.0,0.0,0.0,0.0,0.0,0.0,0.0,0.0,0.0,0.0,0.0,0.0,0.0,0.0,0.0,0.0,0.0,0.0,0.0,0.0,0.0,0.0,0.0,0.0,0.0,0.0,0.0,0.0,0.0,0.0,0.0,0.0,0.0,0.0,0.0,0.0,0.0,0.0,0.0,0.0,0.0,0.0,0.0,0.0,0.0,0.0,0.0,0.0,0.0,0.0,0.0,0.0,0.0,0.0,0.0,0.0,0.0,0.0,0.0,0.0,0.0,0.0,0.0,0.0,0.0,0.0,0.0,0.0,0.0,0.0,0.0,0.0,0.0,0.0,0.0,0.0,0.0,0.0,0.0,0.0,0.0,0.0,0.0,0.0,0.0,0.0,0.0,0.0,0.0,0.0,0.0,0.0,0.0,0.0,0.0,0.0,0.0,0.0,0.0,0.0,0.0,0.0,0.0,0.0,0.0,0.0,0.0,0.0,0.0,0.0,0.0,0.0,0.0,0.0,0.0,0.0,0.0,0.0,0.0,0.0,0.0,0.0,0.0,0.0,0.0,0.0,0.0,0.0,0.0,0.0,0.0,0.0,0.0,0.0,0.0,0.0,0.0,0.0,0.0,0.0,0.0,0.0,0.0,0.0
0.20739115644442174,0.226097397339705,0.24533024863115882,0.26273122968173385,0.2758566580909593,0.28271376418700456,0.2815471383846241,0.272998112686824,0.2580131983697401,0.23835303531231003,0.21633379645863243,0.19407585893987075,0.17458183233247096,0.1599176094270796,0.15149035764840424,0.14995382873026034,0.15495607095487524,0.16608688342934877,0.1820690783157376,0.2012534182833461,0.22182758545714218,0.24166756138094822,0.2597079683718059,0.27479492887256696,0.28620623767791487,0.293701342184024,0.297050722956021,0.297461900924063,0.295810530802779,0.2930189595121628,0.28993042431666755,0.2870116057883098,0.28490359039107416,0.28395066964560534,0.28434494477790206,0.2861595064493111,0.2894238183767919,0.29381713335786974,0.2993284309960419,0.30587376981131076,0.31317581694764124,0.3207403237777078,0.3277715555230635,0.3335961494341767,0.33776010076855434,0.3401921274459715,0.3412801488839655,0.3418276354315711,0.3426875831817927,0.3445758440978805,0.3478123037662222,0.35213776899431243,0.35673242067786815,0.36004177164989226,0.3601987924748281,0.35543248008647294,0.34447639370829153,0.3270031073711956,0.30337606183514576,0.2748462168721543,0.24343466504928915,0.21171508954897522,0.18249259376440116,0.15821029026307595,0.1407884865050287,0.13143685001210537,0.1306051011449548,0.1378464348305214,0.15178512235797703,0.170345591172235,0.19102419157380487,0.21122965853780004,0.2287294059160847,0.0,0.0,0.0,0.0,0.0,0.0,0.0,0.0,0.0,0.0,0.0,0.0,0.0,0.0,0.0,0.0,0.0,0.0,0.0,0.0,0.0,0.0,0.0,0.0,0.0,0.0,0.0,0.0,0.0,0.0,0.0,0.0,0.0,0.0,0.0,0.0,0.0,0.0,0.0,0.0,0.0,0.0,0.0,0.0,0.0,0.0,0.0,0.0,0.0,0.0,0.0,0.0,0.0,0.0,0.0,0.0,0.0,0.0,0.0,0.0,0.0,0.0,0.0,0.0,0.0,0.0,0.0,0.0,0.0,0.0,0.0,0.0,0.0,0.0,0.0,0.0,0.0,0.0,0.0,0.0,0.0,0.0,0.0,0.0,0.0,0.0,0.0,0.0,0.0,0.0,0.0,0.0,0.0,0.0,0.0,0.0,0.0,0.0,0.0,0.0,0.0,0.0,0.0,0.0,0.0,0.0,0.0,0.0,0.0,0.0,0.0,0.0,0.0,0.0,0.0,0.0,0.0,0.0,0.0,0.0,0.0,0.0,0.0,0.0,0.0,0.0,0.0,0.0,0.0,0.0,0.0,0.0,0.0,0.0,0.0,0.0,0.0,0.0,0.0,0.0,0.0,0.0,0.0,0.0,0.0,0.0,0.0,0.0,0.0,0.0,0.0,0.0,0.0,0.0,0.0,0.0,0.0,0.0,0.0,0.0,0.0,0.0,0.0,0.0,0.0,0.0,0.0,0.0,0.0,0.0,0.0,0.0,0.0,0.0,0.0,0.0,0.0,0.0,0.0,0.0,0.0,0.0,0.0,0.0,0.0,0.0,0.0,0.0,0.0,0.0,0.0,0.0,0.0,0.0,0.0,0.0,0.0,0.0,0.0,0.0,0.0,0.0,0.0,0.0,0.0,0.0,0.0,0.0,0.0,0.0,0.0,0.0,0.0,0.0,0.0,0.0,0.0,0.0,0.0,0.0,0.0,0.0,0.0,0.0,0.0,0.0,0.0
-0.07165708468702511,-0.08844030356541649,-0.10024118321139318,-0.10823190044555663,-0.11421632762269714,-0.11989315156320932,-0.12644046155669292,-0.13441128999849802,-0.14313739715021803,-0.15174383869546784,-0.15915815000886266,-0.16444061954796937,-0.1672329941007962,-0.16723105484586667,-0.16505605729322192,-0.16171610488284233,-0.15827782681899374,-0.15563838995565865,-0.15395565941611483,-0.15314272616397523,-0.15274571374115453,-0.15211503409001811,-0.1506200311360696,-0.14778323612209185,-0.14357676932509197,-0.1383231112409814,-0.13257278850240384,-0.12675639248617934,-0.12147746404369157,-0.11726098742387511,-0.11442895109111875,-0.11303054291478956,-0.1124829966036836,-0.11259864800520174,-0.11322273976668024,-0.11428248080655387,-0.11571028834072629,-0.1168832426053342,-0.11784290496018053,-0.11851998153115736,-0.11878774346358455,-0.11839003376666303,-0.11636580927281288,-0.11275063577250295,-0.10767195555572745,-0.10157147977956929,-0.09509738808409506,-0.08833206503723381,-0.08230856503316102,-0.07755393908424417,-0.07418946881839962,-0.0718047424015271,-0.068888615212228,-0.0648836385365737,-0.05903578690186081,-0.05109298433911041,-0.041467661527343526,-0.030598345688975098,-0.02057433331057666,-0.013188041780009528,-0.009850155816236699,-0.011130580653159965,-0.015904516688603716,-0.02330812040493379,-0.03151733806257918,-0.03875701350797423,-0.043888136920190786,-0.04644121546974307,-0.048131074762207675,-0.051536614821140546,-0.059949545627516115,-0.07664569318722163,-0.10385294950659667,0.0,0.0,0.0,0.0,0.0,0.0,0.0,0.0,0.0,0.0,0.0,0.0,0.0,0.0,0.0,0.0,0.0,0.0,0.0,0.0,0.0,0.0,0.0,0.0,0.0,0.0,0.0,0.0,0.0,0.0,0.0,0.0,0.0,0.0,0.0,0.0,0.0,0.0,0.0,0.0,0.0,0.0,0.0,0.0,0.0,0.0,0.0,0.0,0.0,0.0,0.0,0.0,0.0,0.0,0.0,0.0,0.0,0.0,0.0,0.0,0.0,0.0,0.0,0.0,0.0,0.0,0.0,0.0,0.0,0.0,0.0,0.0,0.0,0.0,0.0,0.0,0.0,0.0,0.0,0.0,0.0,0.0,0.0,0.0,0.0,0.0,0.0,0.0,0.0,0.0,0.0,0.0,0.0,0.0,0.0,0.0,0.0,0.0,0.0,0.0,0.0,0.0,0.0,0.0,0.0,0.0,0.0,0.0,0.0,0.0,0.0,0.0,0.0,0.0,0.0,0.0,0.0,0.0,0.0,0.0,0.0,0.0,0.0,0.0,0.0,0.0,0.0,0.0,0.0,0.0,0.0,0.0,0.0,0.0,0.0,0.0,0.0,0.0,0.0,0.0,0.0,0.0,0.0,0.0,0.0,0.0,0.0,0.0,0.0,0.0,0.0,0.0,0.0,0.0,0.0,0.0,0.0,0.0,0.0,0.0,0.0,0.0,0.0,0.0,0.0,0.0,0.0,0.0,0.0,0.0,0.0,0.0,0.0,0.0,0.0,0.0,0.0,0.0,0.0,0.0,0.0,0.0,0.0,0.0,0.0,0.0,0.0,0.0,0.0,0.0,0.0,0.0,0.0,0.0,0.0,0.0,0.0,0.0,0.0,0.0,0.0,0.0,0.0,0.0,0.0,0.0,0.0,0.0,0.0,0.0,0.0,0.0,0.0,0.0,0.0,0.0,0.0,0.0,0.0,0.0,0.0,0.0,0.0,0.0,0.0,0.0,0.0
-0.43253631058843633,-0.48143315058552555,-0.5206948474381481,-0.5507044722983289,-0.5731613989645582,-0.5914898108016715,-0.6090466931787566,-0.6284786318447104,-0.6510164833261203,-0.6758380654966577,-0.7012155028206736,-0.7242056942201393,-0.7417154593710251,-0.7513284943539117,-0.7516238956592338,-0.7433673485181447,-0.7284946237238024,-0.7098156816073152,-0.6902856344529736,-0.6720200703923424,-0.6567451506652112,-0.6448907568012872,-0.6360193014654084,-0.6292427745520356,-0.6234047269456128,-0.6182986292957856,-0.6140275462746478,-0.6110181278377179,-0.6096159708720948,-0.6093909605393629,-0.6095149286190875,-0.6080911011559735,-0.6025233537227852,-0.5899891671921541,-0.5678834137706922,-0.5350069264853617,-0.4915985354072182,-0.4396095050672394,-0.3825165614088001,-0.3247284557624091,-0.2712044372728819,-0.2264140620826278,-0.1937477669070063,-0.17504395562544617,-0.1703759589683904,-0.17821214841243135,-0.19562972248195196,-0.21891362258170252,-0.24418449636800832,-0.2679179614965142,-0.2877415281822582,-0.30207725652125583,-0.31044162301972766,-0.31332503711057047,-0.31178083636700954,-0.30767953718965035,-0.3022781874058729,-0.2964503869406641,-0.29067963388470786,-0.28499498281276586,-0.27994147810831826,-0.2754231430400056,-0.27140067280380553,-0.2680342306588453,-0.26547525885300627,-0.2647345577540797,-0.2659253015228901,-0.26876834513247316,-0.27262648117299115,-0.2764344110444032,-0.2797267104517439,-0.28143876848786803,-0.2807239565643459,0.0,0.0,0.0,0.0,0.0,0.0,0.0,0.0,0.0,0.0,0.0,0.0,0.0,0.0,0.0,0.0,0.0,0.0,0.0,0.0,0.0,0.0,0.0,0.0,0.0,0.0,0.0,0.0,0.0,0.0,0.0,0.0,0.0,0.0,0.0,0.0,0.0,0.0,0.0,0.0,0.0,0.0,0.0,0.0,0.0,0.0,0.0,0.0,0.0,0.0,0.0,0.0,0.0,0.0,0.0,0.0,0.0,0.0,0.0,0.0,0.0,0.0,0.0,0.0,0.0,0.0,0.0,0.0,0.0,0.0,0.0,0.0,0.0,0.0,0.0,0.0,0.0,0.0,0.0,0.0,0.0,0.0,0.0,0.0,0.0,0.0,0.0,0.0,0.0,0.0,0.0,0.0,0.0,0.0,0.0,0.0,0.0,0.0,0.0,0.0,0.0,0.0,0.0,0.0,0.0,0.0,0.0,0.0,0.0,0.0,0.0,0.0,0.0,0.0,0.0,0.0,0.0,0.0,0.0,0.0,0.0,0.0,0.0,0.0,0.0,0.0,0.0,0.0,0.0,0.0,0.0,0.0,0.0,0.0,0.0,0.0,0.0,0.0,0.0,0.0,0.0,0.0,0.0,0.0,0.0,0.0,0.0,0.0,0.0,0.0,0.0,0.0,0.0,0.0,0.0,0.0,0.0,0.0,0.0,0.0,0.0,0.0,0.0,0.0,0.0,0.0,0.0,0.0,0.0,0.0,0.0,0.0,0.0,0.0,0.0,0.0,0.0,0.0,0.0,0.0,0.0,0.0,0.0,0.0,0.0,0.0,0.0,0.0,0.0,0.0,0.0,0.0,0.0,0.0,0.0,0.0,0.0,0.0,0.0,0.0,0.0,0.0,0.0,0.0,0.0,0.0,0.0,0.0,0.0,0.0,0.0,0.0,0.0,0.0,0.0,0.0,0.0,0.0,0.0,0.0,0.0,0.0,0.0,0.0,0.0,0.0,0.0
0.05891652177454214,0.0724489946843386,0.08703430418378323,0.1030041914673056,0.12015461336952535,0.13720685851164743,0.15283063848337525,0.1657522574471552,0.1751048871919756,0.18113104130231822,0.18374239768305417,0.1838698771252442,0.18272891172720637,0.18148653615991406,0.18151546626008072,0.18254509595884713,0.18430963249927906,0.18626470946588308,0.18786818512785247,0.18943705039803752,0.190362537457758,0.19082468981401346,0.19114767603647395,0.1916266679816315,0.19294925567070756,0.19438962032210202,0.19552538465921962,0.19593219034473425,0.1953851508354105,0.1944972047988225,0.19309495223522782,0.19161370737737254,0.19043210125326412,0.1896905363676252,0.18968114791595372,0.18947576182022527,0.18853369318813326,0.18660524360114739,0.18399592189983996,0.18206743854150184,0.18177440657243094,0.18447392314168792,0.1910330108083816,0.2013141653091304,0.2140342543866239,0.2261513065308092,0.2337465559574659,0.23252012365476826,0.21863240871842088,0.18951286264020265,0.1446242292995619,0.08563197963732684,0.01629195718553966,-0.05813306672381875,-0.13153784163516793,-0.19869632441428925,-0.25579142513876474,-0.3010613701097483,-0.33489854216605836,-0.35896708104152464,-0.37696533370498136,-0.3927821629268564,-0.40969358532739664,-0.42954205225457714,-0.45205280970425715,-0.47559946043004153,-0.4974237654024481,-0.5144632618311215,-0.524185562343096,-0.5252615269072438,-0.5177921025380172,-0.5035046206580219,-0.4851438419149595,0.0,0.0,0.0,0.0,0.0,0.0,0.0,0.0,0.0,0.0,0.0,0.0,0.0,0.0,0.0,0.0,0.0,0.0,0.0,0.0,0.0,0.0,0.0,0.0,0.0,0.0,0.0,0.0,0.0,0.0,0.0,0.0,0.0,0.0,0.0,0.0,0.0,0.0,0.0,0.0,0.0,0.0,0.0,0.0,0.0,0.0,0.0,0.0,0.0,0.0,0.0,0.0,0.0,0.0,0.0,0.0,0.0,0.0,0.0,0.0,0.0,0.0,0.0,0.0,0.0,0.0,0.0,0.0,0.0,0.0,0.0,0.0,0.0,0.0,0.0,0.0,0.0,0.0,0.0,0.0,0.0,0.0,0.0,0.0,0.0,0.0,0.0,0.0,0.0,0.0,0.0,0.0,0.0,0.0,0.0,0.0,0.0,0.0,0.0,0.0,0.0,0.0,0.0,0.0,0.0,0.0,0.0,0.0,0.0,0.0,0.0,0.0,0.0,0.0,0.0,0.0,0.0,0.0,0.0,0.0,0.0,0.0,0.0,0.0,0.0,0.0,0.0,0.0,0.0,0.0,0.0,0.0,0.0,0.0,0.0,0.0,0.0,0.0,0.0,0.0,0.0,0.0,0.0,0.0,0.0,0.0,0.0,0.0,0.0,0.0,0.0,0.0,0.0,0.0,0.0,0.0,0.0,0.0,0.0,0.0,0.0,0.0,0.0,0.0,0.0,0.0,0.0,0.0,0.0,0.0,0.0,0.0,0.0,0.0,0.0,0.0,0.0,0.0,0.0,0.0,0.0,0.0,0.0,0.0,0.0,0.0,0.0,0.0,0.0,0.0,0.0,0.0,0.0,0.0,0.0,0.0,0.0,0.0,0.0,0.0,0.0,0.0,0.0,0.0,0.0,0.0,0.0,0.0,0.0,0.0,0.0,0.0,0.0,0.0,0.0,0.0,0.0,0.0,0.0,0.0,0.0,0.0,0.0,0.0,0.0,0.0,0.0
-0.19869632441428925,-0.25579142513876474,-0.3010613701097483,-0.33489854216605836,-0.35896708104152464,-0.37696533370498136,-0.3927821629268564,-0.40969358532739664,-0.42954205225457714,-0.45205280970425715,-0.47559946043004153,-0.4974237654024481,-0.5144632618311215,-0.524185562343096,-0.5252615269072438,-0.5177921025380172,-0.5035046206580219,-0.4851438419149595,-0.465743485531878,-0.4480129890955832,-0.4333404660398012,-0.42215021186766416,-0.4138604719526845,-0.40730140872066,-0.4014935080617905,-0.3952941891670241,-0.38847297561114796,-0.38140363966737395,-0.37476022168987644,-0.3693624559626382,-0.36480078363621105,-0.36009010631132143,-0.35337830109979834,-0.342219034659093,-0.3244068786258573,-0.29752447314464475,-0.26056716897664917,-0.2141277291816038,-0.16066783642857632,-0.10488155398869532,-0.05219682937788879,-0.009298270081917876,0.017032676844653743,0.02088336180194039,-0.0022092677564860444,-0.0530941936646774,-0.1296666820428022,-0.22638918375161013,-0.33472320847461656,-0.4443618119551189,-0.5438706799296255,-0.6227904764538392,-0.6730813142838374,-0.6903297787511735,-0.6744636268034567,-0.6294200682743798,-0.562103368887137,-0.48125677532938516,-0.39599300737334275,-0.31442606474159973,-0.2426363369510262,-0.18355964451782375,-0.13728361314884183,-0.10165623599551192,-0.07319850245538687,-0.04846217309747573,-0.024119619325475874,0.002003040793900866,0.030583915893695603,0.060890847989379736,0.09095158367040185,0.11887287242460423,0.14310583398032348,0.0,0.0,0.0,0.0,0.0,0.0,0.0,0.0,0.0,0.0,0.0,0.0,0.0,0.0,0.0,0.0,0.0,0.0,0.0,0.0,0.0,0.0,0.0,0.0,0.0,0.0,0.0,0.0,0.0,0.0,0.0,0.0,0.0,0.0,0.0,0.0,0.0,0.0,0.0,0.0,0.0,0.0,0.0,0.0,0.0,0.0,0.0,0.0,0.0,0.0,0.0,0.0,0.0,0.0,0.0,0.0,0.0,0.0,0.0,0.0,0.0,0.0,0.0,0.0,0.0,0.0,0.0,0.0,0.0,0.0,0.0,0.0,0.0,0.0,0.0,0.0,0.0,0.0,0.0,0.0,0.0,0.0,0.0,0.0,0.0,0.0,0.0,0.0,0.0,0.0,0.0,0.0,0.0,0.0,0.0,0.0,0.0,0.0,0.0,0.0,0.0,0.0,0.0,0.0,0.0,0.0,0.0,0.0,0.0,0.0,0.0,0.0,0.0,0.0,0.0,0.0,0.0,0.0,0.0,0.0,0.0,0.0,0.0,0.0,0.0,0.0,0.0,0.0,0.0,0.0,0.0,0.0,0.0,0.0,0.0,0.0,0.0,0.0,0.0,0.0,0.0,0.0,0.0,0.0,0.0,0.0,0.0,0.0,0.0,0.0,0.0,0.0,0.0,0.0,0.0,0.0,0.0,0.0,0.0,0.0,0.0,0.0,0.0,0.0,0.0,0.0,0.0,0.0,0.0,0.0,0.0,0.0,0.0,0.0,0.0,0.0,0.0,0.0,0.0,0.0,0.0,0.0,0.0,0.0,0.0,0.0,0.0,0.0,0.0,0.0,0.0,0.0,0.0,0.0,0.0,0.0,0.0,0.0,0.0,0.0,0.0,0.0,0.0,0.0,0.0,0.0,0.0,0.0,0.0,0.0,0.0,0.0,0.0,0.0,0.0,0.0,0.0,0.0,0.0,0.0,0.0,0.0,0.0,0.0,0.0,0.0,0.0
-0.6227904764538392,-0.6730813142838374,-0.6903297787511735,-0.6744636268034567,-0.6294200682743798,-0.562103368887137,-0.48125677532938516,-0.39599300737334275,-0.31442606474159973,-0.2426363369510262,-0.18355964451782375,-0.13728361314884183,-0.10165623599551192,-0.07319850245538687,-0.04846217309747573,-0.024119619325475874,0.002003040793900866,0.030583915893695603,0.060890847989379736,0.09095158367040185,0.11887287242460423,0.14310583398032348,0.16282406778290312,0.17806670075879633,0.1894592651084288,0.1984942709356077,0.20680829874980006,0.2156971237634679,0.22575110897285414,0.23668836738983878,0.24796779449789577,0.25882868027422645,0.26857017974403263,0.2767233382920821,0.2831972802698083,0.2885828164521117,0.2937239569324317,0.2993648691178657,0.3056931642969326,0.31256460423621435,0.31944168865990524,0.32555688936296684,0.3301595584916988,0.3325189713410935,0.33279822204178333,0.33149636404837374,0.3294331944787307,0.3274698650549001,0.32615033907740215,0.325535794578441,0.3254726310108727,0.32545874235518407,0.32478017161810147,0.3228326120678241,0.31870707470847204,0.31256108594872745,0.3050454845378081,0.2970563088472154,0.28942874725578427,0.2825873623936818,0.2769450533854825,0.27259953762722755,0.2693324460763293,0.26654005584396756,0.26375915762490865,0.26062339464936374,0.2569680919655111,0.25284610507536903,0.24830066444395715,0.2438872087975991,0.24011558324651353,0.23748010425881916,0.23635976407440884,0.0,0.0,0.0,0.0,0.0,0.0,0.0,0.0,0.0,0.0,0.0,0.0,0.0,0.0,0.0,0.0,0.0,0.0,0.0,0.0,0.0,0.0,0.0,0.0,0.0,0.0,0.0,0.0,0.0,0.0,0.0,0.0,0.0,0.0,0.0,0.0,0.0,0.0,0.0,0.0,0.0,0.0,0.0,0.0,0.0,0.0,0.0,0.0,0.0,0.0,0.0,0.0,0.0,0.0,0.0,0.0,0.0,0.0,0.0,0.0,0.0,0.0,0.0,0.0,0.0,0.0,0.0,0.0,0.0,0.0,0.0,0.0,0.0,0.0,0.0,0.0,0.0,0.0,0.0,0.0,0.0,0.0,0.0,0.0,0.0,0.0,0.0,0.0,0.0,0.0,0.0,0.0,0.0,0.0,0.0,0.0,0.0,0.0,0.0,0.0,0.0,0.0,0.0,0.0,0.0,0.0,0.0,0.0,0.0,0.0,0.0,0.0,0.0,0.0,0.0,0.0,0.0,0.0,0.0,0.0,0.0,0.0,0.0,0.0,0.0,0.0,0.0,0.0,0.0,0.0,0.0,0.0,0.0,0.0,0.0,0.0,0.0,0.0,0.0,0.0,0.0,0.0,0.0,0.0,0.0,0.0,0.0,0.0,0.0,0.0,0.0,0.0,0.0,0.0,0.0,0.0,0.0,0.0,0.0,0.0,0.0,0.0,0.0,0.0,0.0,0.0,0.0,0.0,0.0,0.0,0.0,0.0,0.0,0.0,0.0,0.0,0.0,0.0,0.0,0.0,0.0,0.0,0.0,0.0,0.0,0.0,0.0,0.0,0.0,0.0,0.0,0.0,0.0,0.0,0.0,0.0,0.0,0.0,0.0,0.0,0.0,0.0,0.0,0.0,0.0,0.0,0.0,0.0,0.0,0.0,0.0,0.0,0.0,0.0,0.0,0.0,0.0,0.0,0.0,0.0,0.0,0.0,0.0,0.0,0.0,0.0,0.0
0.2588822403399109,0.2930297918785249,0.32059833855733494,0.3389782134296348,0.3469306613035822,0.34493462487228277,0.3347048822754923,0.3188903277011453,0.3004539098378536,0.28204040820178655,0.2655304807504444,0.25162960599105805,0.239865702892712,0.2289274119318676,0.2171501550999909,0.20302793556804694,0.1857003642673919,0.16499073905359368,0.14149482863287408,0.1164116231064935,0.09120493492490704,0.06750264368789695,0.046537137359534755,0.029126742543379186,0.015673091112996116,0.006145545965845028,0.0005377339121946871,-0.001493784518460872,-0.0004847868364264645,0.002753112006043589,0.006867054982671521,0.010244885715130296,0.01049241820563445,0.00471083328516851,-0.010166867100908934,-0.036993260462650064,-0.07727508340904915,-0.1310750992947543,-0.19642522737584292,-0.26924291397857175,-0.3437280611924367,-0.41293436132422506,-0.4701005597194274,-0.50968368197095,-0.5283189608562345,-0.5253478526637235,-0.5029747328352631,-0.465805224002388,-0.41986654692556796,-0.3714257727990879,-0.3260340003948698,-0.2870507136950061,-0.2559980733452914,-0.23244301931074782,-0.2145325847419413,-0.20017634614759408,-0.18645275290542476,-0.17163027081276122,-0.15500332770320308,-0.1368504331730407,-0.11859181445434828,-0.1009230807249685,-0.08482887049483208,-0.07088493119920897,-0.05916828160414004,-0.04981907549242992,-0.04169790682872962,-0.03401071169667538,-0.026116747609672333,-0.01768196755643036,-0.00904826169240177,-0.0002127945583039842,0.008433478144367212,0.0,0.0,0.0,0.0,0.0,0.0,0.0,0.0,0.0,0.0,0.0,0.0,0.0,0.0,0.0,0.0,0.0,0.0,0.0,0.0,0.0,0.0,0.0,0.0,0.0,0.0,0.0,0.0,0.0,0.0,0.0,0.0,0.0,0.0,0.0,0.0,0.0,0.0,0.0,0.0,0.0,0.0,0.0,0.0,0.0,0.0,0.0,0.0,0.0,0.0,0.0,0.0,0.0,0.0,0.0,0.0,0.0,0.0,0.0,0.0,0.0,0.0,0.0,0.0,0.0,0.0,0.0,0.0,0.0,0.0,0.0,0.0,0.0,0.0,0.0,0.0,0.0,0.0,0.0,0.0,0.0,0.0,0.0,0.0,0.0,0.0,0.0,0.0,0.0,0.0,0.0,0.0,0.0,0.0,0.0,0.0,0.0,0.0,0.0,0.0,0.0,0.0,0.0,0.0,0.0,0.0,0.0,0.0,0.0,0.0,0.0,0.0,0.0,0.0,0.0,0.0,0.0,0.0,0.0,0.0,0.0,0.0,0.0,0.0,0.0,0.0,0.0,0.0,0.0,0.0,0.0,0.0,0.0,0.0,0.0,0.0,0.0,0.0,0.0,0.0,0.0,0.0,0.0,0.0,0.0,0.0,0.0,0.0,0.0,0.0,0.0,0.0,0.0,0.0,0.0,0.0,0.0,0.0,0.0,0.0,0.0,0.0,0.0,0.0,0.0,0.0,0.0,0.0,0.0,0.0,0.0,0.0,0.0,0.0,0.0,0.0,0.0,0.0,0.0,0.0,0.0,0.0,0.0,0.0,0.0,0.0,0.0,0.0,0.0,0.0,0.0,0.0,0.0,0.0,0.0,0.0,0.0,0.0,0.0,0.0,0.0,0.0,0.0,0.0,0.0,0.0,0.0,0.0,0.0,0.0,0.0,0.0,0.0,0.0,0.0,0.0,0.0,0.0,0.0,0.0,0.0,0.0,0.0,0.0,0.0,0.0,0.0
-0.2870507136950061,-0.2559980733452914,-0.23244301931074782,-0.2145325847419413,-0.20017634614759408,-0.18645275290542476,-0.17163027081276122,-0.15500332770320308,-0.1368504331730407,-0.11859181445434828,-0.1009230807249685,-0.08482887049483208,-0.07088493119920897,-0.05916828160414004,-0.04981907549242992,-0.04169790682872962,-0.03401071169667538,-0.026116747609672333,-0.01768196755643036,-0.00904826169240177,-0.0002127945583039842,0.008433478144367212,0.016512432311163082,0.023804346491279323,0.030202964203709635,0.03614867799278351,0.042210108174997124,0.048989317274823224,0.05687775210317694,0.06559885519950728,0.07468788006268914,0.08295487793028922,0.08870031100854643,0.08995115771507456,0.08453059473494962,0.07136866380853783,0.05025785676163582,0.02226077664541868,-0.010270077713601623,-0.04370561495711536,-0.07430179536065126,-0.09790460029817415,-0.1108442385595427,-0.11049131314227782,-0.09495844321926594,-0.06565319182558847,-0.0248821118913799,0.023712460578425503,0.07568322313632833,0.12691667343492974,0.172945330818022,0.2111077942727489,0.2404686957171486,0.2618577594149345,0.277692411382975,0.29079077946632403,0.30420813937105845,0.3201979964910448,0.33958965103814487,0.36150197120389566,0.383520595832581,0.402373169094113,0.4146002669386122,0.41732154266135524,0.4086546554428305,0.38863598967681096,0.3588546087608462,0.32219500397532014,0.282280403963831,0.2427112048687275,0.20700435823453717,0.1779591424052396,0.15760864397718538,0.0,0.0,0.0,0.0,0.0,0.0,0.0,0.0,0.0,0.0,0.0,0.0,0.0,0.0,0.0,0.0,0.0,0.0,0.0,0.0,0.0,0.0,0.0,0.0,0.0,0.0,0.0,0.0,0.0,0.0,0.0,0.0,0.0,0.0,0.0,0.0,0.0,0.0,0.0,0.0,0.0,0.0,0.0,0.0,0.0,0.0,0.0,0.0,0.0,0.0,0.0,0.0,0.0,0.0,0.0,0.0,0.0,0.0,0.0,0.0,0.0,0.0,0.0,0.0,0.0,0.0,0.0,0.0,0.0,0.0,0.0,0.0,0.0,0.0,0.0,0.0,0.0,0.0,0.0,0.0,0.0,0.0,0.0,0.0,0.0,0.0,0.0,0.0,0.0,0.0,0.0,0.0,0.0,0.0,0.0,0.0,0.0,0.0,0.0,0.0,0.0,0.0,0.0,0.0,0.0,0.0,0.0,0.0,0.0,0.0,0.0,0.0,0.0,0.0,0.0,0.0,0.0,0.0,0.0,0.0,0.0,0.0,0.0,0.0,0.0,0.0,0.0,0.0,0.0,0.0,0.0,0.0,0.0,0.0,0.0,0.0,0.0,0.0,0.0,0.0,0.0,0.0,0.0,0.0,0.0,0.0,0.0,0.0,0.0,0.0,0.0,0.0,0.0,0.0,0.0,0.0,0.0,0.0,0.0,0.0,0.0,0.0,0.0,0.0,0.0,0.0,0.0,0.0,0.0,0.0,0.0,0.0,0.0,0.0,0.0,0.0,0.0,0.0,0.0,0.0,0.0,0.0,0.0,0.0,0.0,0.0,0.0,0.0,0.0,0.0,0.0,0.0,0.0,0.0,0.0,0.0,0.0,0.0,0.0,0.0,0.0,0.0,0.0,0.0,0.0,0.0,0.0,0.0,0.0,0.0,0.0,0.0,0.0,0.0,0.0,0.0,0.0,0.0,0.0,0.0,0.0,0.0,0.0,0.0,0.0,0.0,0.0
0.2404686957171486,0.2618577594149345,0.277692411382975,0.29079077946632403,0.30420813937105845,0.3201979964910448,0.33958965103814487,0.36150197120389566,0.383520595832581,0.402373169094113,0.4146002669386122,0.41732154266135524,0.4086546554428305,0.38863598967681096,0.3588546087608462,0.32219500397532014,0.282280403963831,0.2427112048687275,0.20700435823453717,0.1779591424052396,0.15760864397718538,0.14723926526630676,0.1473655050292336,0.15809092884768594,0.17878136592890945,0.20796103011396602,0.24307715840893793,0.28013742340457726,0.3142796989833483,0.33956314880832794,0.34969929480761386,0.33891505155156915,0.3027070235680502,0.2396382961351631,0.15134206667572733,0.04296956603962032,-0.0771660985054372,-0.19872713754619556,-0.3102614794580935,-0.4012622919204248,-0.46369582437799534,-0.4932472485624435,-0.49001834000103034,-0.4581225396756036,-0.40483004769930064,-0.33915535922991685,-0.27020662753082275,-0.2058757909956291,-0.15096679068832464,-0.10732024304788118,-0.07381709145628956,-0.04716600649920204,-0.023441004818570844,0.0019178542441867028,0.03184111868234383,0.06737109649848197,0.10751623614387708,0.14913089432466053,0.18900432440256415,0.2232109134731798,0.24835803712344215,0.2621984787869562,0.2634756778799208,0.2535970989301891,0.23471237316100016,0.20985470320476482,0.18246019772302702,0.1555955804111142,0.13251743253903325,0.11534727633040184,0.10529953888125883,0.10272191665909788,0.10714860597097896,0.0,0.0,0.0,0.0,0.0,0.0,0.0,0.0,0.0,0.0,0.0,0.0,0.0,0.0,0.0,0.0,0.0,0.0,0.0,0.0,0.0,0.0,0.0,0.0,0.0,0.0,0.0,0.0,0.0,0.0,0.0,0.0,0.0,0.0,0.0,0.0,0.0,0.0,0.0,0.0,0.0,0.0,0.0,0.0,0.0,0.0,0.0,0.0,0.0,0.0,0.0,0.0,0.0,0.0,0.0,0.0,0.0,0.0,0.0,0.0,0.0,0.0,0.0,0.0,0.0,0.0,0.0,0.0,0.0,0.0,0.0,0.0,0.0,0.0,0.0,0.0,0.0,0.0,0.0,0.0,0.0,0.0,0.0,0.0,0.0,0.0,0.0,0.0,0.0,0.0,0.0,0.0,0.0,0.0,0.0,0.0,0.0,0.0,0.0,0.0,0.0,0.0,0.0,0.0,0.0,0.0,0.0,0.0,0.0,0.0,0.0,0.0,0.0,0.0,0.0,0.0,0.0,0.0,0.0,0.0,0.0,0.0,0.0,0.0,0.0,0.0,0.0,0.0,0.0,0.0,0.0,0.0,0.0,0.0,0.0,0.0,0.0,0.0,0.0,0.0,0.0,0.0,0.0,0.0,0.0,0.0,0.0,0.0,0.0,0.0,0.0,0.0,0.0,0.0,0.0,0.0,0.0,0.0,0.0,0.0,0.0,0.0,0.0,0.0,0.0,0.0,0.0,0.0,0.0,0.0,0.0,0.0,0.0,0.0,0.0,0.0,0.0,0.0,0.0,0.0,0.0,0.0,0.0,0.0,0.0,0.0,0.0,0.0,0.0,0.0,0.0,0.0,0.0,0.0,0.0,0.0,0.0,0.0,0.0,0.0,0.0,0.0,0.0,0.0,0.0,0.0,0.0,0.0,0.0,0.0,0.0,0.0,0.0,0.0,0.0,0.0,0.0,0.0,0.0,0.0,0.0,0.0,0.0,0.0,0.0,0.0,0.0
-0.04716600649920204,-0.023441004818570844,0.0019178542441867028,0.03184111868234383,0.06737109649848197,0.10751623614387708,0.14913089432466053,0.18900432440256415,0.2232109134731798,0.24835803712344215,0.2621984787869562,0.2634756778799208,0.2535970989301891,0.23471237316100016,0.20985470320476482,0.18246019772302702,0.1555955804111142,0.13251743253903325,0.11534727633040184,0.10529953888125883,0.10272191665909788,0.10714860597097896,0.11778146517039303,0.13326974572847408,0.1520083202872139,0.17227467810175195,0.19223786790189995,0.2104807597662726,0.22553090678279622,0.23621851990792705,0.24182743954440597,0.24207079261488199,0.23764171762571426,0.2293776463931382,0.21844384445658516,0.20620983015456565,0.19422132139403536,0.1836836561138944,0.17571833872912326,0.17117509424224842,0.1705922207647253,0.1745336799540357,0.18228816738354853,0.1933586362596266,0.20691362433727598,0.22178841516437328,0.23684198883585722,0.250313626376191,0.26106884851920015,0.2685600247953539,0.2729846095640212,0.275411173245814,0.2771121495815824,0.2795702870197457,0.2839157257527949,0.29052481796566887,0.2988300787926006,0.30723241968899967,0.31331717019387123,0.3143872856153487,0.3080650263673165,0.292798375794498,0.2685025828456647,0.23618978906241458,0.19803125371361058,0.15700759018205898,0.11638273701891763,0.07928838885218796,0.04794062490824415,0.02348420288845693,0.005950153996801525,-0.0055623464112090956,-0.012550098902794357,0.0,0.0,0.0,0.0,0.0,0.0,0.0,0.0,0.0,0.0,0.0,0.0,0.0,0.0,0.0,0.0,0.0,0.0,0.0,0.0,0.0,0.0,0.0,0.0,0.0,0.0,0.0,0.0,0.0,0.0,0.0,0.0,0.0,0.0,0.0,0.0,0.0,0.0,0.0,0.0,0.0,0.0,0.0,0.0,0.0,0.0,0.0,0.0,0.0,0.0,0.0,0.0,0.0,0.0,0.0,0.0,0.0,0.0,0.0,0.0,0.0,0.0,0.0,0.0,0.0,0.0,0.0,0.0,0.0,0.0,0.0,0.0,0.0,0.0,0.0,0.0,0.0,0.0,0.0,0.0,0.0,0.0,0.0,0.0,0.0,0.0,0.0,0.0,0.0,0.0,0.0,0.0,0.0,0.0,0.0,0.0,0.0,0.0,0.0,0.0,0.0,0.0,0.0,0.0,0.0,0.0,0.0,0.0,0.0,0.0,0.0,0.0,0.0,0.0,0.0,0.0,0.0,0.0,0.0,0.0,0.0,0.0,0.0,0.0,0.0,0.0,0.0,0.0,0.0,0.0,0.0,0.0,0.0,0.0,0.0,0.0,0.0,0.0,0.0,0.0,0.0,0.0,0.0,0.0,0.0,0.0,0.0,0.0,0.0,0.0,0.0,0.0,0.0,0.0,0.0,0.0,0.0,0.0,0.0,0.0,0.0,0.0,0.0,0.0,0.0,0.0,0.0,0.0,0.0,0.0,0.0,0.0,0.0,0.0,0.0,0.0,0.0,0.0,0.0,0.0,0.0,0.0,0.0,0.0,0.0,0.0,0.0,0.0,0.0,0.0,0.0,0.0,0.0,0.0,0.0,0.0,0.0,0.0,0.0,0.0,0.0,0.0,0.0,0.0,0.0,0.0,0.0,0.0,0.0,0.0,0.0,0.0,0.0,0.0,0.0,0.0,0.0,0.0,0.0,0.0,0.0,0.0,0.0,0.0,0.0,0.0,0.0
-0.016833869462950343,-0.02010989700787192,-0.023647043569524802,-0.028177672097509338,-0.03370356731283934,-0.039988484435443214,-0.04662798500424761,-0.05324424113585112,-0.05972519255746618,-0.06587451716183367,-0.07193087514085422,-0.07821245319932828,-0.08493300798590162,-0.0921492609273591,-0.09938136704320293,-0.1061702343620798,-0.11203477511618609,-0.11662177483595211,-0.11989656118655273,-0.12190545522096298,-0.12312316191497955,-0.12414775976312571,-0.12549104827005594,-0.12750671778631498,-0.12987425113375892,-0.13218961330812212,-0.13387794304458853,-0.1343603217041598,-0.13337915487019608,-0.13055996557582025,-0.12617427264717673,-0.12079353955779867,-0.11511092068629404,-0.10969070961043187,-0.10486745017814507,-0.1009470577056605,-0.09800319542752582,-0.0958615196684283,-0.09388114232833236,-0.09171718721083527,-0.08926487669968286,-0.08661904437715458,-0.08397862069383366,-0.08140740939720643,-0.07898435127152986,-0.07672091822383517,-0.07450061783742457,-0.07209572171923902,-0.06927593396108497,-0.06575643762323075,-0.06140145297239412,-0.05626048683773968,-0.05058750048503263,-0.04459004494950349,-0.03897805489581851,-0.034315158058402996,-0.0309900758438365,-0.02907927925082625,-0.027824581681106596,-0.02712330256523193,-0.026542852897609055,-0.02576796868101826,-0.0246903412086714,-0.022854592441846518,-0.021078421952382232,-0.01989428118804285,-0.019659458911376316,-0.020301403166516543,-0.020535706424192467,-0.019920571334667576,-0.017493301571768646,-0.012566497168655086,-0.005081568298417851,0.0,0.0,0.0,0.0,0.0,0.0,0.0,0.0,0.0,0.0,0.0,0.0,0.0,0.0,0.0,0.0,0.0,0.0,0.0,0.0,0.0,0.0,0.0,0.0,0.0,0.0,0.0,0.0,0.0,0.0,0.0,0.0,0.0,0.0,0.0,0.0,0.0,0.0,0.0,0.0,0.0,0.0,0.0,0.0,0.0,0.0,0.0,0.0,0.0,0.0,0.0,0.0,0.0,0.0,0.0,0.0,0.0,0.0,0.0,0.0,0.0,0.0,0.0,0.0,0.0,0.0,0.0,0.0,0.0,0.0,0.0,0.0,0.0,0.0,0.0,0.0,0.0,0.0,0.0,0.0,0.0,0.0,0.0,0.0,0.0,0.0,0.0,0.0,0.0,0.0,0.0,0.0,0.0,0.0,0.0,0.0,0.0,0.0,0.0,0.0,0.0,0.0,0.0,0.0,0.0,0.0,0.0,0.0,0.0,0.0,0.0,0.0,0.0,0.0,0.0,0.0,0.0,0.0,0.0,0.0,0.0,0.0,0.0,0.0,0.0,0.0,0.0,0.0,0.0,0.0,0.0,0.0,0.0,0.0,0.0,0.0,0.0,0.0,0.0,0.0,0.0,0.0,0.0,0.0,0.0,0.0,0.0,0.0,0.0,0.0,0.0,0.0,0.0,0.0,0.0,0.0,0.0,0.0,0.0,0.0,0.0,0.0,0.0,0.0,0.0,0.0,0.0,0.0,0.0,0.0,0.0,0.0,0.0,0.0,0.0,0.0,0.0,0.0,0.0,0.0,0.0,0.0,0.0,0.0,0.0,0.0,0.0,0.0,0.0,0.0,0.0,0.0,0.0,0.0,0.0,0.0,0.0,0.0,0.0,0.0,0.0,0.0,0.0,0.0,0.0,0.0,0.0,0.0,0.0,0.0,0.0,0.0,0.0,0.0,0.0,0.0,0.0,0.0,0.0,0.0,0.0,0.0,0.0,0.0,0.0,0.0,0.0
-0.37450199176033955,-0.42960890008519353,-0.4664508287206871,-0.4803770095098007,-0.468914082804065,-0.4324629588073338,-0.374076411833193,-0.2993157278690924,-0.21568468874989047,-0.13180763392118947,-0.05649238230633112,0.0023942265528025396,0.038768016641793905,0.049007632010019835,0.032267928204071365,-0.009267059516898725,-0.07077147738322848,-0.14545901210563844,-0.22555560252765652,-0.3035110845811166,-0.3728918921251246,-0.4294062561118797,-0.47144052122600705,-0.5001188370653328,-0.5189109071794565,-0.5324482503412271,-0.5454632557966328,-0.5615577394342838,-0.5822925155384021,-0.6069868721643221,-0.6323315160228438,-0.6535894357588092,-0.66568034695382,-0.6644661940114713,-0.648118461356428,-0.616715090036897,-0.5728594384822743,-0.5209054943248811,-0.4659990250608942,-0.41325722154304334,-0.3661348677334833,-0.3264247599940965,-0.29406608426628245,-0.26753185611031705,-0.24466981601198481,-0.22294720366195817,-0.2004754519699282,-0.17629810792711614,-0.15047734280187025,-0.12390765746006628,-0.09799838616670974,-0.07391190234589955,-0.052357480562599513,-0.03342282949342348,-0.016448311588026513,-0.0008642511271798839,0.014522886149783774,0.030753758119207705,0.048351685043810246,0.06702445018289535,0.08584321883005402,0.10354325666608241,0.11872106557198403,0.13012619958104396,0.1365851790534016,0.13816446841928176,0.13540489137135417,0.1294373201591321,0.12178044021855002,0.1141199391698068,0.1079754965856884,0.10492342492656562,0.10636059180495368,0.0,0.0,0.0,0.0,0.0,0.0,0.0,0.0,0.0,0.0,0.0,0.0,0.0,0.0,0.0,0.0,0.0,0.0,0.0,0.0,0.0,0.0,0.0,0.0,0.0,0.0,0.0,0.0,0.0,0.0,0.0,0.0,0.0,0.0,0.0,0.0,0.0,0.0,0.0,0.0,0.0,0.0,0.0,0.0,0.0,0.0,0.0,0.0,0.0,0.0,0.0,0.0,0.0,0.0,0.0,0.0,0.0,0.0,0.0,0.0,0.0,0.0,0.0,0.0,0.0,0.0,0.0,0.0,0.0,0.0,0.0,0.0,0.0,0.0,0.0,0.0,0.0,0.0,0.0,0.0,0.0,0.0,0.0,0.0,0.0,0.0,0.0,0.0,0.0,0.0,0.0,0.0,0.0,0.0,0.0,0.0,0.0,0.0,0.0,0.0,0.0,0.0,0.0,0.0,0.0,0.0,0.0,0.0,0.0,0.0,0.0,0.0,0.0,0.0,0.0,0.0,0.0,0.0,0.0,0.0,0.0,0.0,0.0,0.0,0.0,0.0,0.0,0.0,0.0,0.0,0.0,0.0,0.0,0.0,0.0,0.0,0.0,0.0,0.0,0.0,0.0,0.0,0.0,0.0,0.0,0.0,0.0,0.0,0.0,0.0,0.0,0.0,0.0,0.0,0.0,0.0,0.0,0.0,0.0,0.0,0.0,0.0,0.0,0.0,0.0,0.0,0.0,0.0,0.0,0.0,0.0,0.0,0.0,0.0,0.0,0.0,0.0,0.0,0.0,0.0,0.0,0.0,0.0,0.0,0.0,0.0,0.0,0.0,0.0,0.0,0.0,0.0,0.0,0.0,0.0,0.0,0.0,0.0,0.0,0.0,0.0,0.0,0.0,0.0,0.0,0.0,0.0,0.0,0.0,0.0,0.0,0.0,0.0,0.0,0.0,0.0,0.0,0.0,0.0,0.0,0.0,0.0,0.0,0.0,0.0,0.0,0.0
-0.07391190234589955,-0.052357480562599513,-0.03342282949342348,-0.016448311588026513,-0.0008642511271798839,0.014522886149783774,0.030753758119207705,0.048351685043810246,0.06702445018289535,0.08584321883005402,0.10354325666608241,0.11872106557198403,0.13012619958104396,0.1365851790534016,0.13816446841928176,0.13540489137135417,0.1294373201591321,0.12178044021855002,0.1141199391698068,0.1079754965856884,0.10492342492656562,0.10636059180495368,0.11343468085605614,0.1273189949882926,0.14782571626307803,0.17475232402521781,0.2071642099203037,0.2432413005881601,0.2806652501612623,0.31550199353896957,0.34432390700194365,0.36416931721525125,0.373047920320264,0.37070873293465245,0.35733388001407124,0.3352192964333384,0.3076629166621447,0.27828627760275965,0.25064215340729484,0.2266191320103853,0.20748401415217793,0.1933853947094592,0.18352463488525525,0.17667880085141185,0.17091981520346664,0.1648078015675147,0.1573944997904496,0.1483783125099996,0.13825578982371475,0.1279166999914216,0.11897079826723915,0.113391978555174,0.11323199013474397,0.12028687787455115,0.13567453148704245,0.1595638911489066,0.1908909380814146,0.227262929891838,0.265073163575342,0.2998932941065601,0.32695105062103974,0.34185434041481505,0.34129386964893205,0.3235993069740557,0.289206435730374,0.24045169267324407,0.1813930319144325,0.11726653028994201,0.053700080316066184,-0.0038722120971642236,-0.05123039442429938,-0.08577706911251463,-0.10676080906904803,0.0,0.0,0.0,0.0,0.0,0.0,0.0,0.0,0.0,0.0,0.0,0.0,0.0,0.0,0.0,0.0,0.0,0.0,0.0,0.0,0.0,0.0,0.0,0.0,0.0,0.0,0.0,0.0,0.0,0.0,0.0,0.0,0.0,0.0,0.0,0.0,0.0,0.0,0.0,0.0,0.0,0.0,0.0,0.0,0.0,0.0,0.0,0.0,0.0,0.0,0.0,0.0,0.0,0.0,0.0,0.0,0.0,0.0,0.0,0.0,0.0,0.0,0.0,0.0,0.0,0.0,0.0,0.0,0.0,0.0,0.0,0.0,0.0,0.0,0.0,0.0,0.0,0.0,0.0,0.0,0.0,0.0,0.0,0.0,0.0,0.0,0.0,0.0,0.0,0.0,0.0,0.0,0.0,0.0,0.0,0.0,0.0,0.0,0.0,0.0,0.0,0.0,0.0,0.0,0.0,0.0,0.0,0.0,0.0,0.0,0.0,0.0,0.0,0.0,0.0,0.0,0.0,0.0,0.0,0.0,0.0,0.0,0.0,0.0,0.0,0.0,0.0,0.0,0.0,0.0,0.0,0.0,0.0,0.0,0.0,0.0,0.0,0.0,0.0,0.0,0.0,0.0,0.0,0.0,0.0,0.0,0.0,0.0,0.0,0.0,0.0,0.0,0.0,0.0,0.0,0.0,0.0,0.0,0.0,0.0,0.0,0.0,0.0,0.0,0.0,0.0,0.0,0.0,0.0,0.0,0.0,0.0,0.0,0.0,0.0,0.0,0.0,0.0,0.0,0.0,0.0,0.0,0.0,0.0,0.0,0.0,0.0,0.0,0.0,0.0,0.0,0.0,0.0,0.0,0.0,0.0,0.0,0.0,0.0,0.0,0.0,0.0,0.0,0.0,0.0,0.0,0.0,0.0,0.0,0.0,0.0,0.0,0.0,0.0,0.0,0.0,0.0,0.0,0.0,0.0,0.0,0.0,0.0,0.0,0.0,0.0,0.0
-0.05123039442429938,-0.08577706911251463,-0.10676080906904803,-0.11527185044084017,-0.1135752386672639,-0.10490122517426559,-0.09268227511279757,-0.07995775905357082,-0.06908733009436725,-0.061026175980335426,-0.05603951992426091,-0.05368996948535401,-0.053154709038093606,-0.05375755631773133,-0.05446798554396848,-0.05500970253976312,-0.05545602915463887,-0.056041497440094595,-0.05694495916467433,-0.05799164427870064,-0.05897786651230677,-0.05948355385076357,-0.05892828584209559,-0.056501286188298916,-0.0518278092748408,-0.04493044156286627,-0.036253537704700696,-0.02657611101768906,-0.01659087175884333,-0.007446605154178221,-0.00019025583070694525,0.004361482562142441,0.005776063806717466,0.004407896065205143,0.00042824173761854024,-0.005683508156275886,-0.013331937221897844,-0.02183837084468722,-0.030319961875534176,-0.03797366402814209,-0.044122280664427214,-0.048138308091708173,-0.049452805496091906,-0.04769216413325114,-0.042409508588589384,-0.03386057072588044,-0.022780866741030064,-0.01031297851044377,0.002290876885517785,0.013550268367048441,0.02216541892592011,0.027303674157829166,0.02882684847520437,0.02771239937066004,0.02484936122708313,0.021660684614962067,0.019432609677204313,0.01890992514720183,0.02038105187590158,0.022391672723493124,0.02286296228754556,0.019224665067637918,0.008993001819199294,-0.009195676524747294,-0.03637114726861956,-0.0719401919034516,-0.1139569737477896,-0.15939511278892612,-0.20415448753647747,-0.24522716218718402,-0.280116411460522,-0.30758377290216127,-0.32778322739705146,0.0,0.0,0.0,0.0,0.0,0.0,0.0,0.0,0.0,0.0,0.0,0.0,0.0,0.0,0.0,0.0,0.0,0.0,0.0,0.0,0.0,0.0,0.0,0.0,0.0,0.0,0.0,0.0,0.0,0.0,0.0,0.0,0.0,0.0,0.0,0.0,0.0,0.0,0.0,0.0,0.0,0.0,0.0,0.0,0.0,0.0,0.0,0.0,0.0,0.0,0.0,0.0,0.0,0.0,0.0,0.0,0.0,0.0,0.0,0.0,0.0,0.0,0.0,0.0,0.0,0.0,0.0,0.0,0.0,0.0,0.0,0.0,0.0,0.0,0.0,0.0,0.0,0.0,0.0,0.0,0.0,0.0,0.0,0.0,0.0,0.0,0.0,0.0,0.0,0.0,0.0,0.0,0.0,0.0,0.0,0.0,0.0,0.0,0.0,0.0,0.0,0.0,0.0,0.0,0.0,0.0,0.0,0.0,0.0,0.0,0.0,0.0,0.0,0.0,0.0,0.0,0.0,0.0,0.0,0.0,0.0,0.0,0.0,0.0,0.0,0.0,0.0,0.0,0.0,0.0,0.0,0.0,0.0,0.0,0.0,0.0,0.0,0.0,0.0,0.0,0.0,0.0,0.0,0.0,0.0,0.0,0.0,0.0,0.0,0.0,0.0,0.0,0.0,0.0,0.0,0.0,0.0,0.0,0.0,0.0,0.0,0.0,0.0,0.0,0.0,0.0,0.0,0.0,0.0,0.0,0.0,0.0,0.0,0.0,0.0,0.0,0.0,0.0,0.0,0.0,0.0,0.0,0.0,0.0,0.0,0.0,0.0,0.0,0.0,0.0,0.0,0.0,0.0,0.0,0.0,0.0,0.0,0.0,0.0,0.0,0.0,0.0,0.0,0.0,0.0,0.0,0.0,0.0,0.0,0.0,0.0,0.0,0.0,0.0,0.0,0.0,0.0,0.0,0.0,0.0,0.0,0.0,0.0,0.0,0.0,0.0,0.0
-0.30758377290216127,-0.32778322739705146,-0.3415099104234103,-0.35153526287794007,-0.36060661981461073,-0.37110264927397485,-0.3843718654345531,-0.3997871876533157,-0.4161401869895509,-0.4307209211084367,-0.44013042745338715,-0.44096050347205473,-0.43010150336148717,-0.4066257341514971,-0.37124226152868955,-0.32654947146549496,-0.27667283459108777,-0.22637410497903837,-0.18097216010784128,-0.14498478713689164,-0.1216234356755635,-0.1123851657101208,-0.11689279166142653,-0.13328366863418598,-0.1584516790927247,-0.18869942119444139,-0.2203627408577206,-0.2502428982976782,-0.27635187964704305,-0.29779936306932175,-0.31479022449777944,-0.3283403160053204,-0.33968446832943855,-0.35036049068199543,-0.3614761391114458,-0.37355437847631706,-0.38648208723864336,-0.39944960809953617,-0.41188870797937355,-0.4233836410400837,-0.4340515891348254,-0.44462385847196634,-0.4560538779814701,-0.46990223144208115,-0.4873271128966142,-0.5087364603108009,-0.5334434299514945,-0.5592309786402045,-0.5837562264768895,-0.6040396163194439,-0.6174370910010104,-0.6222630014310228,-0.617720885943312,-0.6055506535492688,-0.588192395977479,-0.5686607869871558,-0.5497718462800214,-0.5328898921805234,-0.5190314183314629,-0.507017915623064,-0.4942411165053119,-0.47728069112902,-0.45223566716747937,-0.4173297151371009,-0.3718410332985535,-0.31706425964851476,-0.25628065582545595,-0.19400355086596807,-0.1361361043194449,-0.08796712619307188,-0.05359799765553012,-0.035280620521891924,-0.033059600622410854,0.0,0.0,0.0,0.0,0.0,0.0,0.0,0.0,0.0,0.0,0.0,0.0,0.0,0.0,0.0,0.0,0.0,0.0,0.0,0.0,0.0,0.0,0.0,0.0,0.0,0.0,0.0,0.0,0.0,0.0,0.0,0.0,0.0,0.0,0.0,0.0,0.0,0.0,0.0,0.0,0.0,0.0,0.0,0.0,0.0,0.0,0.0,0.0,0.0,0.0,0.0,0.0,0.0,0.0,0.0,0.0,0.0,0.0,0.0,0.0,0.0,0.0,0.0,0.0,0.0,0.0,0.0,0.0,0.0,0.0,0.0,0.0,0.0,0.0,0.0,0.0,0.0,0.0,0.0,0.0,0.0,0.0,0.0,0.0,0.0,0.0,0.0,0.0,0.0,0.0,0.0,0.0,0.0,0.0,0.0,0.0,0.0,0.0,0.0,0.0,0.0,0.0,0.0,0.0,0.0,0.0,0.0,0.0,0.0,0.0,0.0,0.0,0.0,0.0,0.0,0.0,0.0,0.0,0.0,0.0,0.0,0.0,0.0,0.0,0.0,0.0,0.0,0.0,0.0,0.0,0.0,0.0,0.0,0.0,0.0,0.0,0.0,0.0,0.0,0.0,0.0,0.0,0.0,0.0,0.0,0.0,0.0,0.0,0.0,0.0,0.0,0.0,0.0,0.0,0.0,0.0,0.0,0.0,0.0,0.0,0.0,0.0,0.0,0.0,0.0,0.0,0.0,0.0,0.0,0.0,0.0,0.0,0.0,0.0,0.0,0.0,0.0,0.0,0.0,0.0,0.0,0.0,0.0,0.0,0.0,0.0,0.0,0.0,0.0,0.0,0.0,0.0,0.0,0.0,0.0,0.0,0.0,0.0,0.0,0.0,0.0,0.0,0.0,0.0,0.0,0.0,0.0,0.0,0.0,0.0,0.0,0.0,0.0,0.0,0.0,0.0,0.0,0.0,0.0,0.0,0.0,0.0,0.0,0.0,0.0,0.0,0.0
-0.19400355086596807,-0.1361361043194449,-0.08796712619307188,-0.05359799765553012,-0.035280620521891924,-0.033059600622410854,-0.04508324527090238,-0.06778483983045608,-0.09671375827060848,-0.12736811356956942,-0.15573124294850726,-0.17955742968129185,-0.1977785929628713,-0.21066446879617184,-0.21945560661724692,-0.22545584766964802,-0.230795074479412,-0.236678688151136,-0.24361444387683426,-0.25144530079587124,-0.2591163280275748,-0.26647440701050107,-0.27301306724623686,-0.27857851023426095,-0.2834349949744956,-0.28766197807818805,-0.29262611555594525,-0.29894642652969744,-0.3068423702812071,-0.3160290308129832,-0.3252616126535322,-0.33414907628525187,-0.34156153533343925,-0.34654846412833734,-0.3486230666514708,-0.34746048117672174,-0.34450278475285956,-0.3408449302506224,-0.33759694014408137,-0.33556505889380883,-0.3345351499601619,-0.3345285825239166,-0.33405148554888864,-0.3308831615763449,-0.32250705113614675,-0.3062915501587299,-0.28134654269827447,-0.24746024767437963,-0.20587645258087275,-0.15930993294592063,-0.11153228218685077,-0.06732794061209037,-0.03114238702634511,-0.006631943057300642,0.0038871852443054466,-0.00033197258917279284,-0.018090873532554348,-0.0466478156851597,-0.0821491175280785,-0.12027518182500184,-0.1568617230409459,-0.1888142445724569,-0.21418065073542578,-0.23244929713134446,-0.2444375488943091,-0.2516606385276116,-0.25668828854045767,-0.26165594557191896,-0.2680592559349513,-0.27644216508922637,-0.2859713470336075,-0.29573238516738615,-0.3039310249156248,0.0,0.0,0.0,0.0,0.0,0.0,0.0,0.0,0.0,0.0,0.0,0.0,0.0,0.0,0.0,0.0,0.0,0.0,0.0,0.0,0.0,0.0,0.0,0.0,0.0,0.0,0.0,0.0,0.0,0.0,0.0,0.0,0.0,0.0,0.0,0.0,0.0,0.0,0.0,0.0,0.0,0.0,0.0,0.0,0.0,0.0,0.0,0.0,0.0,0.0,0.0,0.0,0.0,0.0,0.0,0.0,0.0,0.0,0.0,0.0,0.0,0.0,0.0,0.0,0.0,0.0,0.0,0.0,0.0,0.0,0.0,0.0,0.0,0.0,0.0,0.0,0.0,0.0,0.0,0.0,0.0,0.0,0.0,0.0,0.0,0.0,0.0,0.0,0.0,0.0,0.0,0.0,0.0,0.0,0.0,0.0,0.0,0.0,0.0,0.0,0.0,0.0,0.0,0.0,0.0,0.0,0.0,0.0,0.0,0.0,0.0,0.0,0.0,0.0,0.0,0.0,0.0,0.0,0.0,0.0,0.0,0.0,0.0,0.0,0.0,0.0,0.0,0.0,0.0,0.0,0.0,0.0,0.0,0.0,0.0,0.0,0.0,0.0,0.0,0.0,0.0,0.0,0.0,0.0,0.0,0.0,0.0,0.0,0.0,0.0,0.0,0.0,0.0,0.0,0.0,0.0,0.0,0.0,0.0,0.0,0.0,0.0,0.0,0.0,0.0,0.0,0.0,0.0,0.0,0.0,0.0,0.0,0.0,0.0,0.0,0.0,0.0,0.0,0.0,0.0,0.0,0.0,0.0,0.0,0.0,0.0,0.0,0.0,0.0,0.0,0.0,0.0,0.0,0.0,0.0,0.0,0.0,0.0,0.0,0.0,0.0,0.0,0.0,0.0,0.0,0.0,0.0,0.0,0.0,0.0,0.0,0.0,0.0,0.0,0.0,0.0,0.0,0.0,0.0,0.0,0.0,0.0,0.0,0.0,0.0,0.0,0.0
-0.00033197258917279284,-0.018090873532554348,-0.0466478156851597,-0.0821491175280785,-0.12027518182500184,-0.1568617230409459,-0.1888142445724569,-0.21418065073542578,-0.23244929713134446,-0.2444375488943091,-0.2516606385276116,-0.25668828854045767,-0.26165594557191896,-0.2680592559349513,-0.27644216508922637,-0.2859713470336075,-0.29573238516738615,-0.3039310249156248,-0.3086835050801412,-0.30844678128414366,-0.30192030752319615,-0.2896061488269844,-0.272425876730275,-0.2519514771360379,-0.2300981129874926,-0.2083840829273395,-0.1888902972098867,-0.1727259731835237,-0.16037197749151846,-0.1517494446908416,-0.14604025049268374,-0.14305281469353462,-0.14212681192465354,-0.14265407314161613,-0.1440913415791797,-0.14556231823605328,-0.1467592435570724,-0.1466355659684951,-0.14375803236719026,-0.13643323846751781,-0.12271732827539435,-0.10175016662550489,-0.07311236710128084,-0.037547084383381335,0.00284823985991094,0.044752558329947865,0.08379147921971751,0.11549074919935906,0.1358712976695059,0.1421297181873397,0.13297252355287892,0.10936619279281255,0.07402240842145595,0.031032229031015764,-0.014864815230462998,-0.059291095875696836,-0.09856406361476679,-0.1304695856710786,-0.15451671782331006,-0.1718593486482657,-0.18502939766623164,-0.19688246588366026,-0.20984864301153533,-0.22538689487820915,-0.24366719980318713,-0.2637363909031102,-0.28351150818127946,-0.30028439615624586,-0.31151174263071113,-0.3154750509581086,-0.3118462986715054,-0.30147864626179993,-0.28603797682734294,0.0,0.0,0.0,0.0,0.0,0.0,0.0,0.0,0.0,0.0,0.0,0.0,0.0,0.0,0.0,0.0,0.0,0.0,0.0,0.0,0.0,0.0,0.0,0.0,0.0,0.0,0.0,0.0,0.0,0.0,0.0,0.0,0.0,0.0,0.0,0.0,0.0,0.0,0.0,0.0,0.0,0.0,0.0,0.0,0.0,0.0,0.0,0.0,0.0,0.0,0.0,0.0,0.0,0.0,0.0,0.0,0.0,0.0,0.0,0.0,0.0,0.0,0.0,0.0,0.0,0.0,0.0,0.0,0.0,0.0,0.0,0.0,0.0,0.0,0.0,0.0,0.0,0.0,0.0,0.0,0.0,0.0,0.0,0.0,0.0,0.0,0.0,0.0,0.0,0.0,0.0,0.0,0.0,0.0,0.0,0.0,0.0,0.0,0.0,0.0,0.0,0.0,0.0,0.0,0.0,0.0,0.0,0.0,0.0,0.0,0.0,0.0,0.0,0.0,0.0,0.0,0.0,0.0,0.0,0.0,0.0,0.0,0.0,0.0,0.0,0.0,0.0,0.0,0.0,0.0,0.0,0.0,0.0,0.0,0.0,0.0,0.0,0.0,0.0,0.0,0.0,0.0,0.0,0.0,0.0,0.0,0.0,0.0,0.0,0.0,0.0,0.0,0.0,0.0,0.0,0.0,0.0,0.0,0.0,0.0,0.0,0.0,0.0,0.0,0.0,0.0,0.0,0.0,0.0,0.0,0.0,0.0,0.0,0.0,0.0,0.0,0.0,0.0,0.0,0.0,0.0,0.0,0.0,0.0,0.0,0.0,0.0,0.0,0.0,0.0,0.0,0.0,0.0,0.0,0.0,0.0,0.0,0.0,0.0,0.0,0.0,0.0,0.0,0.0,0.0,0.0,0.0,0.0,0.0,0.0,0.0,0.0,0.0,0.0,0.0,0.0,0.0,0.0,0.0,0.0,0.0,0.0,0.0,0.0,0.0,0.0,0.0
0.10936619279281255,0.07402240842145595,0.031032229031015764,-0.014864815230462998,-0.059291095875696836,-0.09856406361476679,-0.1304695856710786,-0.15451671782331006,-0.1718593486482657,-0.18502939766623164,-0.19688246588366026,-0.20984864301153533,-0.22538689487820915,-0.24366719980318713,-0.2637363909031102,-0.28351150818127946,-0.30028439615624586,-0.31151174263071113,-0.3154750509581086,-0.3118462986715054,-0.30147864626179993,-0.28603797682734294,-0.2676890486500583,-0.24861882220972084,-0.23074010956259425,-0.21516569359189353,-0.2021144500094701,-0.19119423981530692,-0.18176259346133306,-0.1733878023871359,-0.16583665557018365,-0.15912119971422142,-0.15340752207555094,-0.14878307220194506,-0.14504729480501247,-0.14145446932407404,-0.13659472733080433,-0.12865656886655172,-0.11580355094255704,-0.09661521436414872,-0.07057372359561129,-0.03809440964834619,-0.0006514837979168591,0.039421480043176985,0.07919364055181644,0.11610265576085549,0.14813713229857117,0.17428362714776946,0.194646511028911,0.21000349989303707,0.22240413337271397,0.2337945726185791,0.24577015817420073,0.25918174449307096,0.27379852361582663,0.2888560016039739,0.30303520146161156,0.31497821606217313,0.3237169779572309,0.3289579200413509,0.3311307795840229,0.33142984187428226,0.3313171831305678,0.33202543227899256,0.33412925275527733,0.33721714055004903,0.34028445585730077,0.34184436466979395,0.3403338866007542,0.33457262265321264,0.3239361836137079,0.3089884554228065,0.2911330678203855,0.0,0.0,0.0,0.0,0.0,0.0,0.0,0.0,0.0,0.0,0.0,0.0,0.0,0.0,0.0,0.0,0.0,0.0,0.0,0.0,0.0,0.0,0.0,0.0,0.0,0.0,0.0,0.0,0.0,0.0,0.0,0.0,0.0,0.0,0.0,0.0,0.0,0.0,0.0,0.0,0.0,0.0,0.0,0.0,0.0,0.0,0.0,0.0,0.0,0.0,0.0,0.0,0.0,0.0,0.0,0.0,0.0,0.0,0.0,0.0,0.0,0.0,0.0,0.0,0.0,0.0,0.0,0.0,0.0,0.0,0.0,0.0,0.0,0.0,0.0,0.0,0.0,0.0,0.0,0.0,0.0,0.0,0.0,0.0,0.0,0.0,0.0,0.0,0.0,0.0,0.0,0.0,0.0,0.0,0.0,0.0,0.0,0.0,0.0,0.0,0.0,0.0,0.0,0.0,0.0,0.0,0.0,0.0,0.0,0.0,0.0,0.0,0.0,0.0,0.0,0.0,0.0,0.0,0.0,0.0,0.0,0.0,0.0,0.0,0.0,0.0,0.0,0.0,0.0,0.0,0.0,0.0,0.0,0.0,0.0,0.0,0.0,0.0,0.0,0.0,0.0,0.0,0.0,0.0,0.0,0.0,0.0,0.0,0.0,0.0,0.0,0.0,0.0,0.0,0.0,0.0,0.0,0.0,0.0,0.0,0.0,0.0,0.0,0.0,0.0,0.0,0.0,0.0,0.0,0.0,0.0,0.0,0.0,0.0,0.0,0.0,0.0,0.0,0.0,0.0,0.0,0.0,0.0,0.0,0.0,0.0,0.0,0.0,0.0,0.0,0.0,0.0,0.0,0.0,0.0,0.0,0.0,0.0,0.0,0.0,0.0,0.0,0.0,0.0,0.0,0.0,0.0,0.0,0.0,0.0,0.0,0.0,0.0,0.0,0.0,0.0,0.0,0.0,0.0,0.0,0.0,0.0,0.0,0.0,0.0,0.0,0.0
