0.024509803921568627,0.22549019607843135,0.4607843137254902,0.6519607843137255,0.8039215686274509,0.8284313725490196,0.6617647058823529,0.2843137254901961,-0.1764705882352941,-0.5049019607843137,-0.6274509803921569,-0.6372549019607843,-0.5784313725490196,-0.4705882352941176,-0.3529411764705882,-0.2549019607843137,-0.2352941176470588,-0.22058823529411764,-0.2107843137254902,-0.21568627450980396,-0.2352941176470588,-0.2401960784313725,-0.24509803921568624,-0.2401960784313725,-0.2598039215686275,-0.2598039215686275,-0.2352941176470588,-0.2401960784313725,-0.24509803921568624,-0.25,-0.2352941176470588,-0.2352941176470588,-0.2598039215686275,-0.2647058823529412,-0.2598039215686275,-0.25,-0.2549019607843137,-0.2598039215686275,-0.25,-0.25,-0.2696078431372549,-0.27450980392156865,-0.2696078431372549,-0.25,-0.2647058823529412,-0.25,-0.2352941176470588,-0.21568627450980396,-0.22549019607843135,-0.2352941176470588,-0.2303921568627451,-0.21568627450980396,-0.2058823529411765,-0.22549019607843135,-0.2107843137254902,-0.16666666666666669,-0.18137254901960784,-0.18137254901960784,-0.1764705882352941,-0.14215686274509806,-0.12254901960784312,-0.10294117647058824,-0.08333333333333334,-0.0392156862745098,-0.029411764705882356,-0.0392156862745098,-0.029411764705882356,-0.00980392156862745,-0.014705882352941175,-0.0196078431372549,-0.004901960784313725,-0.004901960784313725,0.0,-0.004901960784313725,-0.03431372549019608,-0.0196078431372549,-0.014705882352941175,-0.024509803921568627,-0.044117647058823525,-0.06372549019607843,-0.06862745098039216,-0.0784313725490196,-0.0931372549019608,-0.10294117647058824,-0.09803921568627452,-0.09803921568627452,-0.11274509803921567,-0.10294117647058824,-0.11274509803921567,-0.1176470588235294,-0.14215686274509806,-0.13725490196078433,-0.12745098039215685,-0.13725490196078433,-0.14215686274509806,-0.14705882352941174,-0.12745098039215685,-0.12254901960784312,-0.13725490196078433,-0.14705882352941174,-0.13725490196078433,-0.14705882352941174,-0.13725490196078433,-0.13725490196078433,-0.10784313725490197,-0.13725490196078433,-0.1323529411764706,-0.1323529411764706,-0.14705882352941174,-0.13725490196078433,-0.17156862745098034,-0.18137254901960784,-0.1764705882352941,-0.17156862745098034,-0.19607843137254904,-0.1911764705882353,-0.1568627450980392,-0.13725490196078433,-0.13725490196078433,-0.13725490196078433,-0.10784313725490197,-0.10784313725490197,-0.10294117647058824,-0.0931372549019608,-0.06862745098039216,-0.07352941176470587,-0.0931372549019608,-0.10294117647058824,-0.07352941176470587,-0.08333333333333334,-0.07352941176470587,-0.0784313725490196,-0.05392156862745098,-0.0392156862745098,-0.044117647058823525,-0.06372549019607843,-0.06862745098039216,-0.0784313725490196,-0.08333333333333334,-0.1176470588235294,-0.0931372549019608,-0.0784313725490196,-0.0931372549019608,-0.10294117647058824,-0.12254901960784312,-0.09803921568627452,-0.09803921568627452,-0.12254901960784312,-0.12745098039215685,-0.10294117647058824,-0.1176470588235294,-0.12745098039215685,-0.14705882352941174,-0.1323529411764706,-0.12745098039215685,-0.14705882352941174,-0.13725490196078433,-0.12745098039215685,-0.12745098039215685,-0.13725490196078433,-0.15196078431372548,-0.14705882352941174,-0.1323529411764706,-0.13725490196078433,-0.14215686274509806,-0.14215686274509806,-0.1568627450980392,-0.1568627450980392,-0.16666666666666669,-0.1764705882352941,-0.16666666666666669,-0.18137254901960784,-0.18137254901960784,-0.18137254901960784,-0.14215686274509806,-0.13725490196078433,-0.13725490196078433,-0.1323529411764706,-0.12254901960784312,-0.10294117647058824,-0.09803921568627452,-0.10294117647058824,-0.0931372549019608,-0.08823529411764705,-0.0784313725490196,-0.08823529411764705,-0.06372549019607843,-0.05882352941176471,-0.06862745098039216,-0.08333333333333334,-0.07352941176470587,-0.05882352941176471,-0.06862745098039216,-0.08823529411764705,-0.08333333333333334,-0.04901960784313725,-0.07352941176470587,-0.0784313725490196,-0.06862745098039216,-0.05392156862745098,-0.06862745098039216,-0.0784313725490196,-0.08333333333333334,-0.0931372549019608,-0.0784313725490196,-0.0931372549019608,-0.0784313725490196,-0.07352941176470587,-0.08823529411764705,-0.10784313725490197,-0.0931372549019608,-0.10294117647058824,-0.0931372549019608,-0.11274509803921567,-0.0931372549019608,-0.08823529411764705,-0.09803921568627452,-0.11274509803921567,-0.08333333333333334,0.0196078431372549,0.1862745098039216,0.3725490196078432,0.5686274509803921,0.7598039215686274,0.8921568627450981,0.8921568627450981,0.696078431372549,0.33333333333333337,-0.14705882352941174,-0.5196078431372549,-0.6274509803921569,-0.5980392156862745,-0.5098039215686274,-0.4313725490196079,-0.3627450980392157,-0.3137254901960784,-0.2892156862745098,-0.2892156862745098,-0.2794117647058823,-0.24509803921568624,-0.2352941176470588,-0.2549019607843137,-0.2549019607843137,-0.2352941176470588,-0.2107843137254902,-0.2058823529411765,-0.20098039215686272,-0.19607843137254904,-0.1568627450980392,-0.1764705882352941,-0.1911764705882353,-0.1911764705882353,-0.16666666666666669,-0.16666666666666669,-0.1764705882352941,-0.18137254901960784,-0.16666666666666669,-0.1862745098039216,-0.19607843137254904,-0.20098039215686272,-0.20098039215686272,-0.18137254901960784,-0.1862745098039216,-0.19607843137254904,-0.1911764705882353,0.0,0.0,0.0,0.0,0.0,0.0,0.0,0.0,0.0,0.0,0.0,0.0,0.0,0.0,0.0,0.0,0.0,0.0,0.0,0.0,0.0,0.0,0.0,0.0,0.0,0.0,0.0,0.0,0.0,0.0,0.0,0.0,0.0,0.0,0.0,0
0.6906779661016949,0.38135593220338987,-0.021186440677966104,-0.3686440677966102,-0.4745762711864408,-0.4745762711864408,-0.3771186440677967,-0.2669491525423729,-0.17372881355932204,-0.1186440677966102,-0.11016949152542374,-0.09745762711864407,-0.10593220338983053,-0.09322033898305083,-0.09745762711864407,-0.09745762711864407,-0.1016949152542373,-0.1016949152542373,-0.08474576271186443,-0.09322033898305083,-0.08898305084745763,-0.10593220338983053,-0.07627118644067797,-0.07627118644067797,-0.08474576271186443,-0.07627118644067797,-0.08474576271186443,-0.0805084745762712,-0.07203389830508475,-0.06779661016949153,-0.0635593220338983,-0.07203389830508475,-0.06779661016949153,-0.059322033898305086,-0.046610169491525424,-0.03813559322033898,-0.046610169491525424,-0.042372881355932215,-0.042372881355932215,-0.05084745762711865,-0.03389830508474576,-0.059322033898305086,-0.0635593220338983,-0.0805084745762712,-0.0805084745762712,-0.09745762711864407,-0.1016949152542373,-0.11016949152542374,-0.1186440677966102,-0.13559322033898305,-0.13559322033898305,-0.13135593220338984,-0.13559322033898305,-0.1440677966101695,-0.13559322033898305,-0.13135593220338984,-0.13559322033898305,-0.1398305084745763,-0.1398305084745763,-0.13135593220338984,-0.11016949152542374,-0.1186440677966102,-0.09322033898305083,-0.0805084745762712,-0.06779661016949153,-0.03389830508474576,-0.046610169491525424,-0.025423728813559324,-0.00423728813559322,-0.00847457627118644,-0.012711864406779662,0.00423728813559322,-0.00423728813559322,-0.00423728813559322,-0.00847457627118644,0.0,0.0,-0.012711864406779662,-0.01694915254237288,-0.01694915254237288,-0.021186440677966104,-0.025423728813559324,-0.03389830508474576,-0.02966101694915255,-0.025423728813559324,-0.02966101694915255,-0.025423728813559324,-0.02966101694915255,-0.02966101694915255,-0.021186440677966104,-0.025423728813559324,-0.03813559322033898,-0.025423728813559324,-0.01694915254237288,-0.01694915254237288,-0.021186440677966104,-0.01694915254237288,0.0,0.0,0.00423728813559322,0.021186440677966104,0.00423728813559322,0.0,0.00847457627118644,0.00847457627118644,-0.00423728813559322,0.0,-0.00847457627118644,-0.01694915254237288,-0.021186440677966104,-0.042372881355932215,-0.059322033898305086,-0.059322033898305086,-0.0635593220338983,-0.07203389830508475,-0.0635593220338983,-0.06779661016949153,-0.07203389830508475,-0.07203389830508475,-0.07627118644067797,-0.06779661016949153,-0.08474576271186443,-0.0805084745762712,-0.08474576271186443,-0.08474576271186443,-0.08474576271186443,-0.07203389830508475,-0.08474576271186443,-0.07627118644067797,-0.07203389830508475,-0.0805084745762712,-0.07203389830508475,-0.07203389830508475,-0.07627118644067797,-0.0805084745762712,-0.08898305084745763,-0.08898305084745763,-0.08474576271186443,-0.07627118644067797,-0.08898305084745763,-0.07627118644067797,-0.07203389830508475,-0.06779661016949153,-0.0635593220338983,-0.05084745762711865,-0.06779661016949153,-0.07203389830508475,-0.07203389830508475,-0.0635593220338983,-0.05508474576271187,-0.05508474576271187,-0.0635593220338983,-0.059322033898305086,-0.0635593220338983,-0.05508474576271187,-0.042372881355932215,-0.046610169491525424,-0.042372881355932215,-0.03813559322033898,-0.02966101694915255,-0.02966101694915255,-0.02966101694915255,-0.01694915254237288,-0.00847457627118644,-0.00847457627118644,-0.00423728813559322,-0.00423728813559322,-0.00423728813559322,-0.025423728813559324,-0.021186440677966104,-0.02966101694915255,-0.03389830508474576,-0.03389830508474576,-0.0635593220338983,-0.059322033898305086,-0.05508474576271187,-0.06779661016949153,-0.07203389830508475,-0.06779661016949153,-0.07203389830508475,-0.07203389830508475,-0.06779661016949153,-0.07627118644067797,-0.0805084745762712,-0.07627118644067797,-0.059322033898305086,-0.0805084745762712,-0.07627118644067797,-0.08474576271186443,-0.08474576271186443,-0.09745762711864407,-0.0805084745762712,-0.06779661016949153,-0.06779661016949153,-0.06779661016949153,-0.0635593220338983,-0.059322033898305086,-0.07203389830508475,-0.06779661016949153,-0.07627118644067797,-0.07627118644067797,-0.07203389830508475,-0.0805084745762712,-0.059322033898305086,-0.06779661016949153,-0.05084745762711865,-0.0635593220338983,-0.05084745762711865,-0.042372881355932215,-0.05084745762711865,-0.05508474576271187,-0.03813559322033898,-0.03389830508474576,-0.02966101694915255,-0.042372881355932215,-0.03389830508474576,-0.025423728813559324,-0.02966101694915255,-0.03813559322033898,-0.021186440677966104,-0.021186440677966104,-0.012711864406779662,-0.00423728813559322,0.00423728813559322,-0.00423728813559322,0.012711864406779662,0.00423728813559322,0.012711864406779662,0.025423728813559324,0.02966101694915255,0.012711864406779662,0.00847457627118644,0.00847457627118644,0.012711864406779662,-0.00423728813559322,-0.00847457627118644,-0.021186440677966104,-0.01694915254237288,-0.03389830508474576,-0.042372881355932215,-0.03813559322033898,-0.059322033898305086,-0.05084745762711865,-0.046610169491525424,-0.046610169491525424,-0.042372881355932215,-0.059322033898305086,-0.0635593220338983,-0.05508474576271187,-0.06779661016949153,-0.05508474576271187,-0.07627118644067797,-0.05508474576271187,-0.046610169491525424,-0.059322033898305086,-0.06779661016949153,-0.0635593220338983,-0.0635593220338983,-0.046610169491525424,-0.05084745762711865,-0.05508474576271187,-0.059322033898305086,-0.05084745762711865,-0.05084745762711865,-0.03813559322033898,-0.03813559322033898,-0.046610169491525424,-0.05084745762711865,-0.03389830508474576,-0.012711864406779662,0.09322033898305083,0.24152542372881355,0.4322033898305085,0.6440677966101696,0.8347457627118644,0.9745762711864406,0.0,0.0,0.0,0.0,0.0,0.0,0.0,0.0,0.0,0.0,0.0,0.0,0.0,0.0,0.0,0.0,0.0,0.0,0.0,0.0,0.0,0.0,0.0,0.0,0
-0.009259259259259259,0.18055555555555555,0.3842592592592592,0.5925925925925926,0.7546296296296295,0.8055555555555555,0.662037037037037,0.3194444444444444,-0.12037037037037035,-0.5092592592592593,-0.6435185185185184,-0.6388888888888888,-0.5740740740740741,-0.4629629629629629,-0.35185185185185186,-0.2777777777777777,-0.23148148148148145,-0.2083333333333333,-0.23148148148148145,-0.22685185185185186,-0.21296296296296294,-0.22685185185185186,-0.21759259259259256,-0.23148148148148145,-0.23148148148148145,-0.2222222222222222,-0.21296296296296294,-0.2083333333333333,-0.2083333333333333,-0.1944444444444444,-0.2037037037037037,-0.1851851851851852,-0.1898148148148148,-0.1851851851851852,-0.1944444444444444,-0.1898148148148148,-0.18055555555555555,-0.17592592592592593,-0.17129629629629628,-0.17129629629629628,-0.17129629629629628,-0.16666666666666666,-0.14814814814814814,-0.13888888888888887,-0.15277777777777776,-0.14814814814814814,-0.14814814814814814,-0.162037037037037,-0.1574074074074074,-0.17592592592592593,-0.1898148148148148,-0.1898148148148148,-0.2037037037037037,-0.21759259259259256,-0.2083333333333333,-0.24074074074074076,-0.22685185185185186,-0.23148148148148145,-0.2361111111111111,-0.24074074074074076,-0.24074074074074076,-0.24074074074074076,-0.24074074074074076,-0.2361111111111111,-0.24074074074074076,-0.2083333333333333,-0.21759259259259256,-0.2037037037037037,-0.19907407407407407,-0.17592592592592593,-0.17592592592592593,-0.17592592592592593,-0.1574074074074074,-0.125,-0.125,-0.10648148148148147,-0.10185185185185183,-0.0925925925925926,-0.0925925925925926,-0.0972222222222222,-0.0972222222222222,-0.1111111111111111,-0.1111111111111111,-0.10648148148148147,-0.1111111111111111,-0.10185185185185183,-0.125,-0.125,-0.125,-0.1111111111111111,-0.11574074074074073,-0.125,-0.125,-0.13425925925925924,-0.11574074074074073,-0.12037037037037035,-0.12962962962962962,-0.125,-0.12962962962962962,-0.11574074074074073,-0.12037037037037035,-0.10648148148148147,-0.1111111111111111,-0.1111111111111111,-0.10185185185185183,-0.10185185185185183,-0.08333333333333333,-0.0787037037037037,-0.07407407407407407,-0.07407407407407407,-0.07407407407407407,-0.0787037037037037,-0.07407407407407407,-0.0925925925925926,-0.11574074074074073,-0.12037037037037035,-0.125,-0.12962962962962962,-0.13888888888888887,-0.12962962962962962,-0.13425925925925924,-0.14351851851851852,-0.14814814814814814,-0.13888888888888887,-0.125,-0.14814814814814814,-0.13425925925925924,-0.13888888888888887,-0.14814814814814814,-0.14814814814814814,-0.15277777777777776,-0.14814814814814814,-0.1574074074074074,-0.1574074074074074,-0.17129629629629628,-0.1574074074074074,-0.14351851851851852,-0.14814814814814814,-0.15277777777777776,-0.15277777777777776,-0.1574074074074074,-0.16666666666666666,-0.07407407407407407,0.06944444444444442,0.29166666666666663,0.5277777777777777,0.7546296296296295,0.8935185185185184,0.8703703703703702,0.5925925925925926,0.17592592592592593,-0.2453703703703704,-0.5046296296296297,-0.5787037037037037,-0.5509259259259258,-0.4629629629629629,-0.35648148148148145,-0.25,-0.1944444444444444,-0.16666666666666666,-0.1574074074074074,-0.16666666666666666,-0.1574074074074074,-0.1574074074074074,-0.14814814814814814,-0.1574074074074074,-0.162037037037037,-0.162037037037037,-0.16666666666666666,-0.16666666666666666,-0.162037037037037,-0.16666666666666666,-0.162037037037037,-0.1574074074074074,-0.13888888888888887,-0.12962962962962962,-0.14814814814814814,-0.12962962962962962,-0.13425925925925924,-0.14351851851851852,-0.13425925925925924,-0.13425925925925924,-0.13888888888888887,-0.14814814814814814,-0.14814814814814814,-0.162037037037037,-0.17592592592592593,-0.2083333333333333,-0.2083333333333333,-0.2037037037037037,-0.21759259259259256,-0.2222222222222222,-0.21759259259259256,-0.24074074074074076,-0.2361111111111111,-0.2222222222222222,-0.2453703703703704,-0.24074074074074076,-0.23148148148148145,-0.2361111111111111,-0.22685185185185186,-0.2361111111111111,-0.2361111111111111,-0.23148148148148145,-0.21296296296296294,-0.21759259259259256,-0.2083333333333333,-0.1851851851851852,-0.18055555555555555,-0.162037037037037,-0.15277777777777776,-0.13425925925925924,-0.1111111111111111,-0.1111111111111111,-0.10185185185185183,-0.08333333333333333,-0.060185185185185175,-0.050925925925925916,-0.04166666666666666,-0.027777777777777776,-0.027777777777777776,-0.04166666666666666,-0.04629629629629629,-0.04629629629629629,-0.060185185185185175,-0.04629629629629629,-0.050925925925925916,-0.060185185185185175,-0.06481481481481481,0.0,0.0,0.0,0.0,0.0,0.0,0.0,0.0,0.0,0.0,0.0,0.0,0.0,0.0,0.0,0.0,0.0,0.0,0.0,0.0,0.0,0.0,0.0,0.0,0.0,0.0,0.0,0.0,0.0,0.0,0.0,0.0,0.0,0.0,0.0,0.0,0.0,0.0,0.0,0.0,0.0,0.0,0.0,0.0,0.0,0.0,0.0,0.0,0.0,0.0,0.0,0.0,0.0,0.0,0.0,0.0,0.0,0.0,0.0,0.0,0.0,0.0,0.0,0.0,0.0,0.0,0.0,0.0,0.0,0.0,0.0,0
0.7964601769911506,0.6017699115044248,0.2477876106194691,-0.16371681415929204,-0.4955752212389382,-0.592920353982301,-0.5707964601769913,-0.5,-0.3761061946902655,-0.2566371681415929,-0.16814159292035402,-0.14159292035398233,-0.1194690265486726,-0.13716814159292035,-0.12831858407079647,-0.15486725663716813,-0.1592920353982301,-0.15486725663716813,-0.16814159292035402,-0.18141592920353986,-0.1769911504424779,-0.1946902654867257,-0.2035398230088496,-0.1946902654867257,-0.22123893805309736,-0.2345132743362832,-0.2300884955752213,-0.2433628318584071,-0.25221238938053103,-0.2477876106194691,-0.2477876106194691,-0.25221238938053103,-0.2610619469026549,-0.25221238938053103,-0.2566371681415929,-0.26548672566371684,-0.2566371681415929,-0.2566371681415929,-0.26548672566371684,-0.25221238938053103,-0.2477876106194691,-0.2610619469026549,-0.2610619469026549,-0.26548672566371684,-0.26548672566371684,-0.2566371681415929,-0.2566371681415929,-0.26548672566371684,-0.2433628318584071,-0.2477876106194691,-0.2433628318584071,-0.25221238938053103,-0.2610619469026549,-0.2345132743362832,-0.25221238938053103,-0.2433628318584071,-0.2477876106194691,-0.2345132743362832,-0.2256637168141593,-0.22123893805309736,-0.22123893805309736,-0.19911504424778764,-0.2168141592920354,-0.1946902654867257,-0.17256637168141595,-0.16814159292035402,-0.1592920353982301,-0.15486725663716813,-0.14601769911504428,-0.1194690265486726,-0.11504424778761065,-0.07964601769911504,-0.08407079646017701,-0.08849557522123895,-0.07079646017699116,-0.06194690265486728,-0.05752212389380532,-0.04867256637168142,-0.04424778761061948,-0.04867256637168142,-0.04867256637168142,-0.03097345132743364,-0.03539823008849558,-0.03982300884955752,-0.03982300884955752,-0.03539823008849558,-0.026548672566371685,-0.05309734513274337,-0.05309734513274337,-0.06637168141592921,-0.07964601769911504,-0.09734513274336284,-0.11061946902654868,-0.1194690265486726,-0.15486725663716813,-0.1592920353982301,-0.1504424778761062,-0.16371681415929204,-0.16814159292035402,-0.16814159292035402,-0.16814159292035402,-0.1769911504424779,-0.17256637168141595,-0.17256637168141595,-0.1769911504424779,-0.18584070796460175,-0.16371681415929204,-0.1769911504424779,-0.1769911504424779,-0.17256637168141595,-0.16814159292035402,-0.15486725663716813,-0.14159292035398233,-0.15486725663716813,-0.1504424778761062,-0.1504424778761062,-0.16371681415929204,-0.14159292035398233,-0.14601769911504428,-0.1592920353982301,-0.1592920353982301,-0.16371681415929204,-0.14159292035398233,-0.1504424778761062,-0.1504424778761062,-0.15486725663716813,-0.15486725663716813,-0.1592920353982301,-0.15486725663716813,-0.1504424778761062,-0.16371681415929204,-0.14159292035398233,-0.14601769911504428,-0.14601769911504428,-0.1504424778761062,-0.15486725663716813,-0.1504424778761062,-0.15486725663716813,-0.14601769911504428,-0.14159292035398233,-0.13716814159292035,-0.13716814159292035,-0.14159292035398233,-0.13716814159292035,-0.14159292035398233,-0.1504424778761062,-0.12389380530973455,-0.12389380530973455,-0.11504424778761065,-0.11061946902654868,-0.1017699115044248,-0.1017699115044248,-0.1017699115044248,-0.07079646017699116,-0.09734513274336284,-0.09734513274336284,-0.09734513274336284,-0.07964601769911504,-0.08407079646017701,-0.11061946902654868,-0.1017699115044248,-0.11504424778761065,-0.13274336283185842,-0.13716814159292035,-0.15486725663716813,-0.1504424778761062,-0.16371681415929204,-0.1592920353982301,-0.1769911504424779,-0.16371681415929204,-0.16814159292035402,-0.16814159292035402,-0.18141592920353986,-0.17256637168141595,-0.17256637168141595,-0.1769911504424779,-0.1769911504424779,-0.1769911504424779,-0.19026548672566373,-0.16814159292035402,-0.18141592920353986,-0.18141592920353986,-0.16814159292035402,-0.1769911504424779,-0.18584070796460175,-0.18141592920353986,-0.19026548672566373,-0.18141592920353986,-0.18584070796460175,-0.1769911504424779,-0.18584070796460175,-0.17256637168141595,-0.19026548672566373,-0.18141592920353986,-0.18141592920353986,-0.1946902654867257,-0.18141592920353986,-0.1592920353982301,-0.16814159292035402,-0.15486725663716813,-0.1504424778761062,-0.15486725663716813,-0.1504424778761062,-0.1592920353982301,-0.1504424778761062,-0.14601769911504428,-0.1592920353982301,-0.1504424778761062,-0.13716814159292035,-0.06637168141592921,0.06637168141592921,0.27433628318584075,0.4911504424778762,0.7123893805309736,0.8761061946902655,0.7654867256637169,0.41592920353982304,-0.03097345132743364,-0.3849557522123894,-0.5486725663716815,-0.5486725663716815,-0.4823008849557523,-0.35840707964601776,-0.2699115044247788,-0.2168141592920354,-0.18584070796460175,-0.18141592920353986,-0.18141592920353986,-0.18584070796460175,-0.19911504424778764,-0.2035398230088496,-0.19911504424778764,-0.1946902654867257,-0.2035398230088496,-0.20796460176991152,-0.21238938053097348,-0.2256637168141593,-0.2035398230088496,-0.2168141592920354,-0.2300884955752213,-0.2389380530973452,-0.2389380530973452,-0.2300884955752213,-0.2256637168141593,-0.2389380530973452,-0.2477876106194691,-0.2345132743362832,-0.2389380530973452,0.0,0.0,0.0,0.0,0.0,0.0,0.0,0.0,0.0,0.0,0.0,0.0,0.0,0.0,0.0,0.0,0.0,0.0,0.0,0.0,0.0,0.0,0.0,0.0,0.0,0.0,0.0,0.0,0.0,0.0,0.0,0.0,0.0,0.0,0.0,0.0,0.0,0.0,0.0,0.0,0.0,0.0,0.0,0.0,0.0,0.0,0.0,0.0,0.0,0.0,0.0,0.0,0
-0.07964601769911504,0.01769911504424779,0.18141592920353986,0.4026548672566373,0.6194690265486725,0.7964601769911506,0.920353982300885,0.8716814159292036,0.6238938053097345,0.2300884955752213,-0.2035398230088496,-0.4778761061946904,-0.5486725663716815,-0.5088495575221239,-0.3938053097345133,-0.27433628318584075,-0.18584070796460175,-0.1194690265486726,-0.09292035398230088,-0.08849557522123895,-0.09734513274336284,-0.1194690265486726,-0.14159292035398233,-0.13716814159292035,-0.13274336283185842,-0.1504424778761062,-0.1592920353982301,-0.18584070796460175,-0.1769911504424779,-0.18141592920353986,-0.18584070796460175,-0.19026548672566373,-0.21238938053097348,-0.20796460176991152,-0.2035398230088496,-0.2035398230088496,-0.20796460176991152,-0.21238938053097348,-0.2168141592920354,-0.21238938053097348,-0.20796460176991152,-0.21238938053097348,-0.21238938053097348,-0.2168141592920354,-0.2256637168141593,-0.2168141592920354,-0.20796460176991152,-0.2168141592920354,-0.21238938053097348,-0.22123893805309736,-0.2168141592920354,-0.20796460176991152,-0.22123893805309736,-0.21238938053097348,-0.2168141592920354,-0.21238938053097348,-0.2035398230088496,-0.19911504424778764,-0.20796460176991152,-0.20796460176991152,-0.21238938053097348,-0.20796460176991152,-0.20796460176991152,-0.1946902654867257,-0.19026548672566373,-0.19911504424778764,-0.1769911504424779,-0.1769911504424779,-0.17256637168141595,-0.1769911504424779,-0.14601769911504428,-0.13274336283185842,-0.12389380530973455,-0.1194690265486726,-0.10619469026548674,-0.08849557522123895,-0.07079646017699116,-0.05309734513274337,-0.03982300884955752,-0.013274336283185842,-0.008849557522123895,0.008849557522123895,0.03097345132743364,0.026548672566371685,0.022123893805309738,0.008849557522123895,0.022123893805309738,0.013274336283185842,0.0,-0.004424778761061948,-0.026548672566371685,-0.03539823008849558,-0.04867256637168142,-0.06637168141592921,-0.08849557522123895,-0.11061946902654868,-0.10619469026548674,-0.10619469026548674,-0.1194690265486726,-0.1194690265486726,-0.1194690265486726,-0.12389380530973455,-0.1194690265486726,-0.12389380530973455,-0.1194690265486726,-0.13274336283185842,-0.12389380530973455,-0.14601769911504428,-0.13716814159292035,-0.13716814159292035,-0.14159292035398233,-0.13716814159292035,-0.14159292035398233,-0.12831858407079647,-0.13274336283185842,-0.13274336283185842,-0.13274336283185842,-0.12389380530973455,-0.1194690265486726,-0.12389380530973455,-0.10619469026548674,-0.1194690265486726,-0.10619469026548674,-0.09734513274336284,-0.09734513274336284,-0.09734513274336284,-0.09292035398230088,-0.08849557522123895,-0.09292035398230088,-0.1017699115044248,-0.1017699115044248,-0.1194690265486726,-0.12831858407079647,-0.1194690265486726,-0.11504424778761065,-0.11061946902654868,-0.11504424778761065,-0.11061946902654868,-0.1194690265486726,-0.09734513274336284,-0.11504424778761065,-0.10619469026548674,-0.11504424778761065,-0.1017699115044248,-0.08849557522123895,-0.08407079646017701,-0.06637168141592921,-0.06637168141592921,-0.07079646017699116,-0.08407079646017701,-0.04867256637168142,-0.04867256637168142,-0.04867256637168142,-0.013274336283185842,0.10619469026548674,0.29203539823008856,0.4911504424778762,0.6858407079646018,0.8230088495575223,0.84070796460177,0.6814159292035399,0.33185840707964603,-0.14159292035398233,-0.5309734513274337,-0.6946902654867257,-0.6814159292035399,-0.592920353982301,-0.4601769911504425,-0.33628318584070804,-0.2566371681415929,-0.22123893805309736,-0.19911504424778764,-0.20796460176991152,-0.2168141592920354,-0.2256637168141593,-0.22123893805309736,-0.21238938053097348,-0.2256637168141593,-0.22123893805309736,-0.21238938053097348,-0.20796460176991152,-0.2035398230088496,-0.2035398230088496,-0.20796460176991152,-0.2035398230088496,-0.20796460176991152,-0.22123893805309736,-0.2035398230088496,-0.19911504424778764,-0.19911504424778764,-0.18141592920353986,-0.19911504424778764,-0.16814159292035402,-0.1769911504424779,-0.17256637168141595,-0.19026548672566373,-0.1769911504424779,-0.18141592920353986,-0.1769911504424779,-0.17256637168141595,-0.18584070796460175,-0.18584070796460175,-0.16814159292035402,-0.15486725663716813,-0.17256637168141595,-0.16814159292035402,-0.16814159292035402,-0.1769911504424779,-0.1592920353982301,-0.16814159292035402,-0.1592920353982301,-0.15486725663716813,-0.1504424778761062,-0.14159292035398233,-0.14159292035398233,-0.13716814159292035,-0.11504424778761065,-0.1194690265486726,-0.1017699115044248,-0.07964601769911504,-0.08407079646017701,-0.0752212389380531,-0.06194690265486728,-0.03982300884955752,-0.01769911504424779,-0.004424778761061948,-0.03097345132743364,-0.04424778761061948,-0.03982300884955752,-0.03982300884955752,-0.03097345132743364,-0.03982300884955752,-0.04424778761061948,-0.05309734513274337,-0.06194690265486728,-0.06194690265486728,-0.0752212389380531,-0.07079646017699116,-0.09734513274336284,-0.09292035398230088,-0.1017699115044248,-0.11061946902654868,-0.1194690265486726,-0.14159292035398233,-0.13716814159292035,-0.12831858407079647,-0.12831858407079647,-0.12831858407079647,0.0,0.0,0.0,0.0,0.0,0.0,0.0,0.0,0.0,0.0,0.0,0.0,0.0,0.0,0.0,0.0,0.0,0.0,0.0,0.0,0.0,0.0,0.0,0.0,0.0,0.0,0.0,0.0,0.0,0.0,0.0,0.0,0.0,0.0,0.0,0.0,0.0,0.0,0.0,0.0,0.0,0.0,0.0,0.0,0.0,0.0,0.0,0.0,0.0,0.0,0.0,0.0,0
-0.2067307692307692,-0.22115384615384612,-0.25,-0.25961538461538464,-0.25961538461538464,-0.2644230769230769,-0.2836538461538461,-0.2692307692307693,-0.2548076923076923,-0.23076923076923075,-0.2548076923076923,-0.22596153846153846,-0.1971153846153846,-0.2067307692307692,-0.1971153846153846,-0.17307692307692307,-0.16826923076923075,-0.15384615384615385,-0.16346153846153846,-0.16826923076923075,-0.15384615384615385,-0.13461538461538464,-0.14423076923076922,-0.1394230769230769,-0.12980769230769232,-0.11538461538461538,-0.12019230769230768,-0.1394230769230769,-0.12980769230769232,-0.12980769230769232,-0.1394230769230769,-0.12980769230769232,-0.11538461538461538,-0.11538461538461538,-0.1394230769230769,-0.1394230769230769,-0.13461538461538464,-0.11538461538461538,-0.03365384615384616,0.11538461538461538,0.3173076923076923,0.5336538461538461,0.7307692307692307,0.8942307692307693,0.9471153846153846,0.75,0.3701923076923077,-0.11538461538461538,-0.4326923076923077,-0.5384615384615385,-0.5432692307692307,-0.4855769230769231,-0.3894230769230769,-0.32211538461538464,-0.2932692307692307,-0.2788461538461538,-0.2644230769230769,-0.2644230769230769,-0.2788461538461538,-0.28846153846153844,-0.2932692307692307,-0.2980769230769231,-0.3125,-0.3125,-0.32211538461538464,-0.30288461538461536,-0.3173076923076923,-0.3269230769230769,-0.32211538461538464,-0.3076923076923077,-0.28846153846153844,-0.2980769230769231,-0.2740384615384615,-0.25961538461538464,-0.25,-0.2548076923076923,-0.24038461538461536,-0.23076923076923075,-0.22596153846153846,-0.23076923076923075,-0.21634615384615385,-0.19230769230769232,-0.2019230769230769,-0.2019230769230769,-0.2067307692307692,-0.19230769230769232,-0.1875,-0.19230769230769232,-0.16826923076923075,-0.15865384615384615,-0.16346153846153846,-0.15384615384615385,-0.15384615384615385,-0.1394230769230769,-0.11538461538461538,-0.125,-0.11538461538461538,-0.09615384615384616,-0.09134615384615384,-0.10096153846153844,-0.11057692307692307,-0.10096153846153844,-0.08653846153846154,-0.07692307692307693,-0.07211538461538461,-0.05288461538461538,-0.05288461538461538,-0.0625,-0.05288461538461538,-0.05288461538461538,-0.028846153846153844,-0.02403846153846154,-0.02403846153846154,-0.02403846153846154,-0.04326923076923077,-0.04326923076923077,-0.0625,-0.05288461538461538,-0.05288461538461538,-0.06730769230769232,-0.08173076923076923,-0.09134615384615384,-0.09134615384615384,-0.11057692307692307,-0.12980769230769232,-0.15384615384615385,-0.14423076923076922,-0.15865384615384615,-0.17307692307692307,-0.17788461538461536,-0.17788461538461536,-0.15384615384615385,-0.14903846153846154,-0.14903846153846154,-0.13461538461538464,-0.09134615384615384,-0.08173076923076923,-0.07692307692307693,-0.0625,-0.07692307692307693,-0.0625,-0.06730769230769232,-0.038461538461538464,-0.038461538461538464,-0.04326923076923077,-0.04326923076923077,-0.02403846153846154,-0.02403846153846154,-0.05769230769230769,-0.05769230769230769,-0.038461538461538464,-0.02403846153846154,-0.038461538461538464,-0.03365384615384616,-0.02403846153846154,-0.02403846153846154,-0.038461538461538464,-0.06730769230769232,-0.05769230769230769,-0.04326923076923077,-0.04326923076923077,-0.05288461538461538,-0.04807692307692308,-0.05769230769230769,-0.05769230769230769,-0.06730769230769232,-0.06730769230769232,-0.05769230769230769,-0.06730769230769232,-0.08173076923076923,-0.07692307692307693,-0.07211538461538461,-0.09615384615384616,-0.11057692307692307,-0.09615384615384616,-0.09615384615384616,-0.10576923076923077,-0.10096153846153844,-0.10576923076923077,-0.09615384615384616,-0.11538461538461538,-0.1394230769230769,-0.14423076923076922,-0.14903846153846154,-0.1394230769230769,-0.15384615384615385,-0.16346153846153846,-0.16826923076923075,-0.17788461538461536,-0.16826923076923075,-0.15384615384615385,-0.15384615384615385,-0.13461538461538464,-0.14903846153846154,-0.11538461538461538,-0.11538461538461538,-0.09615384615384616,-0.10576923076923077,-0.10576923076923077,-0.09615384615384616,-0.09134615384615384,-0.08173076923076923,-0.07211538461538461,-0.0625,-0.08653846153846154,-0.08173076923076923,-0.08173076923076923,-0.06730769230769232,-0.04326923076923077,-0.07211538461538461,-0.07211538461538461,-0.09134615384615384,-0.07211538461538461,-0.10096153846153844,-0.09134615384615384,-0.09615384615384616,-0.08173076923076923,-0.07211538461538461,-0.08653846153846154,-0.10576923076923077,-0.09134615384615384,-0.10576923076923077,-0.10576923076923077,-0.12019230769230768,-0.10096153846153844,-0.12980769230769232,-0.13461538461538464,-0.13461538461538464,-0.13461538461538464,-0.12980769230769232,-0.15384615384615385,-0.15865384615384615,-0.14423076923076922,-0.1394230769230769,-0.1394230769230769,-0.15384615384615385,-0.15384615384615385,-0.14903846153846154,-0.16346153846153846,-0.15865384615384615,-0.14423076923076922,-0.14903846153846154,-0.14903846153846154,-0.14903846153846154,-0.16826923076923075,-0.1875,-0.2019230769230769,-0.21153846153846154,-0.21153846153846154,-0.19230769230769232,-0.21153846153846154,-0.22596153846153846,-0.21634615384615385,-0.2067307692307692,-0.2019230769230769,-0.21153846153846154,-0.17307692307692307,-0.15384615384615385,-0.1394230769230769,-0.1394230769230769,-0.1394230769230769,-0.12019230769230768,-0.125,-0.13461538461538464,-0.10576923076923077,-0.08653846153846154,-0.09134615384615384,-0.09615384615384616,-0.10576923076923077,-0.11057692307692307,-0.11057692307692307,-0.11538461538461538,-0.11538461538461538,-0.09615384615384616,-0.10576923076923077,-0.10576923076923077,-0.12019230769230768,-0.10576923076923077,-0.11538461538461538,-0.13461538461538464,-0.11538461538461538,-0.019230769230769232,0.07211538461538461,0.21634615384615385,0.4182692307692307,0.5961538461538461,0.7692307692307693,0.8509615384615384,0.7596153846153846,0.4759615384615384,0.03365384615384616,-0.3894230769230769,-0.5673076923076923,-0.5817307692307692,-0.5288461538461539,-0.4519230769230769,0.0,0.0,0.0,0.0,0
0.024509803921568627,0.22549019607843135,0.4607843137254902,0.6519607843137255,0.8039215686274509,0.8284313725490196,0.6617647058823529,0.2843137254901961,-0.1764705882352941,-0.5049019607843137,-0.6274509803921569,-0.6372549019607843,-0.5784313725490196,-0.4705882352941176,-0.3529411764705882,-0.2549019607843137,-0.2352941176470588,-0.22058823529411764,-0.2107843137254902,-0.21568627450980396,-0.2352941176470588,-0.2401960784313725,-0.24509803921568624,-0.2401960784313725,-0.2598039215686275,-0.2598039215686275,-0.2352941176470588,-0.2401960784313725,-0.24509803921568624,-0.25,-0.2352941176470588,-0.2352941176470588,-0.2598039215686275,-0.2647058823529412,-0.2598039215686275,-0.25,-0.2549019607843137,-0.2598039215686275,-0.25,-0.25,-0.2696078431372549,-0.27450980392156865,-0.2696078431372549,-0.25,-0.2647058823529412,-0.25,-0.2352941176470588,-0.21568627450980396,-0.22549019607843135,-0.2352941176470588,-0.2303921568627451,-0.21568627450980396,-0.2058823529411765,-0.22549019607843135,-0.2107843137254902,-0.16666666666666669,-0.18137254901960784,-0.18137254901960784,-0.1764705882352941,-0.14215686274509806,-0.12254901960784312,-0.10294117647058824,-0.08333333333333334,-0.0392156862745098,-0.029411764705882356,-0.0392156862745098,-0.029411764705882356,-0.00980392156862745,-0.014705882352941175,-0.0196078431372549,-0.004901960784313725,-0.004901960784313725,0.0,-0.004901960784313725,-0.03431372549019608,-0.0196078431372549,-0.014705882352941175,-0.024509803921568627,-0.044117647058823525,-0.06372549019607843,-0.06862745098039216,-0.0784313725490196,-0.0931372549019608,-0.10294117647058824,-0.09803921568627452,-0.09803921568627452,-0.11274509803921567,-0.10294117647058824,-0.11274509803921567,-0.1176470588235294,-0.14215686274509806,-0.13725490196078433,-0.12745098039215685,-0.13725490196078433,-0.14215686274509806,-0.14705882352941174,-0.12745098039215685,-0.12254901960784312,-0.13725490196078433,-0.14705882352941174,-0.13725490196078433,-0.14705882352941174,-0.13725490196078433,-0.13725490196078433,-0.10784313725490197,-0.13725490196078433,-0.1323529411764706,-0.1323529411764706,-0.14705882352941174,-0.13725490196078433,-0.17156862745098034,-0.18137254901960784,-0.1764705882352941,-0.17156862745098034,-0.19607843137254904,-0.1911764705882353,-0.1568627450980392,-0.13725490196078433,-0.13725490196078433,-0.13725490196078433,-0.10784313725490197,-0.10784313725490197,-0.10294117647058824,-0.0931372549019608,-0.06862745098039216,-0.07352941176470587,-0.0931372549019608,-0.10294117647058824,-0.07352941176470587,-0.08333333333333334,-0.07352941176470587,-0.0784313725490196,-0.05392156862745098,-0.0392156862745098,-0.044117647058823525,-0.06372549019607843,-0.06862745098039216,-0.0784313725490196,-0.08333333333333334,-0.1176470588235294,-0.0931372549019608,-0.0784313725490196,-0.0931372549019608,-0.10294117647058824,-0.12254901960784312,-0.09803921568627452,-0.09803921568627452,-0.12254901960784312,-0.12745098039215685,-0.10294117647058824,-0.1176470588235294,-0.12745098039215685,-0.14705882352941174,-0.1323529411764706,-0.12745098039215685,-0.14705882352941174,-0.13725490196078433,-0.12745098039215685,-0.12745098039215685,-0.13725490196078433,-0.15196078431372548,-0.14705882352941174,-0.1323529411764706,-0.13725490196078433,-0.14215686274509806,-0.14215686274509806,-0.1568627450980392,-0.1568627450980392,-0.16666666666666669,-0.1764705882352941,-0.16666666666666669,-0.18137254901960784,-0.18137254901960784,-0.18137254901960784,-0.14215686274509806,-0.13725490196078433,-0.13725490196078433,-0.1323529411764706,-0.12254901960784312,-0.10294117647058824,-0.09803921568627452,-0.10294117647058824,-0.0931372549019608,-0.08823529411764705,-0.0784313725490196,-0.08823529411764705,-0.06372549019607843,-0.05882352941176471,-0.06862745098039216,-0.08333333333333334,-0.07352941176470587,-0.05882352941176471,-0.06862745098039216,-0.08823529411764705,-0.08333333333333334,-0.04901960784313725,-0.07352941176470587,-0.0784313725490196,-0.06862745098039216,-0.05392156862745098,-0.06862745098039216,-0.0784313725490196,-0.08333333333333334,-0.0931372549019608,-0.0784313725490196,-0.0931372549019608,-0.0784313725490196,-0.07352941176470587,-0.08823529411764705,-0.10784313725490197,-0.0931372549019608,-0.10294117647058824,-0.0931372549019608,-0.11274509803921567,-0.0931372549019608,-0.08823529411764705,-0.09803921568627452,-0.11274509803921567,-0.08333333333333334,0.0196078431372549,0.1862745098039216,0.3725490196078432,0.5686274509803921,0.7598039215686274,0.8921568627450981,0.8921568627450981,0.696078431372549,0.33333333333333337,-0.14705882352941174,-0.5196078431372549,-0.6274509803921569,-0.5980392156862745,-0.5098039215686274,-0.4313725490196079,-0.3627450980392157,-0.3137254901960784,-0.2892156862745098,-0.2892156862745098,-0.2794117647058823,-0.24509803921568624,-0.2352941176470588,-0.2549019607843137,-0.2549019607843137,-0.2352941176470588,-0.2107843137254902,-0.2058823529411765,-0.20098039215686272,-0.19607843137254904,-0.1568627450980392,-0.1764705882352941,-0.1911764705882353,-0.1911764705882353,-0.16666666666666669,-0.16666666666666669,-0.1764705882352941,-0.18137254901960784,-0.16666666666666669,-0.1862745098039216,-0.19607843137254904,-0.20098039215686272,-0.20098039215686272,-0.18137254901960784,-0.1862745098039216,-0.19607843137254904,-0.1911764705882353,0.0,0.0,0.0,0.0,0.0,0.0,0.0,0.0,0.0,0.0,0.0,0.0,0.0,0.0,0.0,0.0,0.0,0.0,0.0,0.0,0.0,0.0,0.0,0.0,0.0,0.0,0.0,0.0,0.0,0.0,0.0,0.0,0.0,0.0,0.0,0
0.8376623376623377,0.6558441558441558,0.2857142857142857,-0.16883116883116886,-0.564935064935065,-0.7467532467532467,-0.7662337662337662,-0.7077922077922079,-0.5909090909090909,-0.448051948051948,-0.3051948051948052,-0.23376623376623376,-0.1883116883116883,-0.15584415584415584,-0.15584415584415584,-0.17532467532467533,-0.18181818181818185,-0.17532467532467533,-0.1883116883116883,-0.18181818181818185,-0.15584415584415584,-0.16233766233766234,-0.15584415584415584,-0.15584415584415584,-0.17532467532467533,-0.16883116883116886,-0.16883116883116886,-0.14285714285714285,-0.14935064935064934,-0.14285714285714285,-0.12337662337662338,-0.12987012987012989,-0.14285714285714285,-0.14935064935064934,-0.13636363636363635,-0.12987012987012989,-0.14285714285714285,-0.15584415584415584,-0.14935064935064934,-0.14285714285714285,-0.13636363636363635,-0.13636363636363635,-0.14285714285714285,-0.12337662337662338,-0.13636363636363635,-0.12987012987012989,-0.12337662337662338,-0.0974025974025974,-0.1103896103896104,-0.0974025974025974,-0.07792207792207792,-0.07142857142857142,-0.07792207792207792,-0.06493506493506494,-0.051948051948051945,-0.07142857142857142,-0.051948051948051945,-0.03246753246753247,-0.051948051948051945,-0.03896103896103896,-0.045454545454545456,-0.01948051948051948,-0.012987012987012986,-0.012987012987012986,-0.006493506493506493,-0.01948051948051948,-0.01948051948051948,-0.006493506493506493,0.0,0.0,0.0,0.0,0.0,-0.012987012987012986,-0.012987012987012986,0.0,-0.01948051948051948,-0.02597402597402597,-0.045454545454545456,-0.02597402597402597,-0.051948051948051945,-0.07142857142857142,-0.06493506493506494,-0.06493506493506494,-0.0974025974025974,-0.08441558441558443,-0.07792207792207792,-0.08441558441558443,-0.08441558441558443,-0.0974025974025974,-0.09090909090909093,-0.10389610389610388,-0.0974025974025974,-0.11688311688311688,-0.10389610389610388,-0.1103896103896104,-0.10389610389610388,-0.10389610389610388,-0.12337662337662338,-0.11688311688311688,-0.11688311688311688,-0.11688311688311688,-0.09090909090909093,-0.11688311688311688,-0.10389610389610388,-0.11688311688311688,-0.10389610389610388,-0.0974025974025974,-0.10389610389610388,-0.09090909090909093,-0.09090909090909093,-0.08441558441558443,-0.10389610389610388,-0.11688311688311688,-0.1103896103896104,-0.0974025974025974,-0.10389610389610388,-0.0974025974025974,-0.10389610389610388,-0.10389610389610388,-0.10389610389610388,-0.0974025974025974,-0.09090909090909093,-0.11688311688311688,-0.09090909090909093,-0.10389610389610388,-0.11688311688311688,-0.0974025974025974,-0.1103896103896104,-0.12987012987012989,-0.11688311688311688,-0.10389610389610388,-0.12987012987012989,-0.08441558441558443,-0.10389610389610388,-0.09090909090909093,-0.08441558441558443,-0.07792207792207792,-0.0974025974025974,-0.0974025974025974,-0.11688311688311688,-0.10389610389610388,-0.1103896103896104,-0.12337662337662338,-0.12987012987012989,-0.12337662337662338,-0.11688311688311688,-0.12987012987012989,-0.10389610389610388,-0.12987012987012989,-0.12987012987012989,-0.12987012987012989,-0.12987012987012989,-0.11688311688311688,-0.12987012987012989,-0.1103896103896104,-0.11688311688311688,-0.10389610389610388,-0.09090909090909093,-0.10389610389610388,-0.10389610389610388,-0.0974025974025974,-0.10389610389610388,-0.1103896103896104,-0.11688311688311688,-0.09090909090909093,-0.10389610389610388,-0.11688311688311688,-0.12987012987012989,-0.12337662337662338,-0.14935064935064934,-0.11688311688311688,-0.10389610389610388,-0.10389610389610388,-0.11688311688311688,-0.11688311688311688,-0.1103896103896104,-0.0974025974025974,-0.12337662337662338,-0.12337662337662338,-0.11688311688311688,-0.11688311688311688,-0.11688311688311688,-0.12337662337662338,-0.1103896103896104,-0.1103896103896104,-0.08441558441558443,0.03896103896103896,0.20129870129870128,0.4545454545454545,0.6558441558441558,0.7987012987012987,0.8376623376623377,0.7207792207792209,0.3701298701298701,-0.08441558441558443,-0.5324675324675324,-0.7337662337662337,-0.7532467532467532,-0.6818181818181819,-0.5454545454545454,-0.3896103896103896,-0.2727272727272727,-0.1883116883116883,-0.16883116883116886,-0.17532467532467533,-0.17532467532467533,-0.17532467532467533,-0.18181818181818185,-0.17532467532467533,-0.16883116883116886,-0.17532467532467533,-0.16883116883116886,-0.1948051948051948,-0.1948051948051948,-0.1883116883116883,-0.16233766233766234,-0.16883116883116886,-0.18181818181818185,-0.17532467532467533,-0.1883116883116883,-0.17532467532467533,-0.20129870129870128,-0.1883116883116883,-0.18181818181818185,-0.1883116883116883,-0.1883116883116883,-0.17532467532467533,-0.1883116883116883,-0.1948051948051948,-0.18181818181818185,-0.16883116883116886,-0.17532467532467533,-0.16883116883116886,-0.16233766233766234,-0.14285714285714285,-0.14935064935064934,-0.14935064935064934,-0.12337662337662338,-0.11688311688311688,-0.12337662337662338,-0.10389610389610388,-0.10389610389610388,-0.09090909090909093,-0.07142857142857142,-0.07792207792207792,-0.07142857142857142,-0.07792207792207792,0.0,0.0,0.0,0.0,0.0,0.0,0.0,0.0,0.0,0.0,0.0,0.0,0.0,0.0,0.0,0.0,0.0,0.0,0.0,0.0,0.0,0.0,0.0,0.0,0.0,0.0,0.0,0.0,0.0,0.0,0.0,0.0,0.0,0.0,0.0,0.0,0.0,0.0,0.0,0.0,0.0,0.0,0.0,0.0,0.0,0.0,0.0,0.0,0.0,0.0,0.0,0.0,0
-0.07211538461538461,0.05288461538461538,0.21153846153846154,0.4134615384615384,0.5913461538461539,0.7596153846153846,0.8461538461538461,0.7451923076923077,0.4326923076923077,-0.02403846153846154,-0.4230769230769231,-0.6009615384615384,-0.610576923076923,-0.5384615384615385,-0.4615384615384615,-0.38461538461538464,-0.3173076923076923,-0.30288461538461536,-0.2836538461538461,-0.3076923076923077,-0.2980769230769231,-0.2980769230769231,-0.30288461538461536,-0.2980769230769231,-0.3076923076923077,-0.3173076923076923,-0.32211538461538464,-0.3461538461538461,-0.3701923076923077,-0.375,-0.375,-0.38461538461538464,-0.3894230769230769,-0.3701923076923077,-0.3413461538461538,-0.35096153846153844,-0.35096153846153844,-0.3317307692307692,-0.3125,-0.3125,-0.30288461538461536,-0.3125,-0.2980769230769231,-0.2836538461538461,-0.2788461538461538,-0.2788461538461538,-0.2548076923076923,-0.25961538461538464,-0.2644230769230769,-0.2548076923076923,-0.2548076923076923,-0.25,-0.24038461538461536,-0.2067307692307692,-0.22596153846153846,-0.22596153846153846,-0.22596153846153846,-0.21634615384615385,-0.2019230769230769,-0.2019230769230769,-0.18269230769230768,-0.17788461538461536,-0.17307692307692307,-0.17788461538461536,-0.17307692307692307,-0.18269230769230768,-0.16826923076923075,-0.15384615384615385,-0.16346153846153846,-0.14903846153846154,-0.12980769230769232,-0.13461538461538464,-0.12980769230769232,-0.1394230769230769,-0.125,-0.11538461538461538,-0.11057692307692307,-0.11057692307692307,-0.11538461538461538,-0.12019230769230768,-0.13461538461538464,-0.15384615384615385,-0.15865384615384615,-0.15384615384615385,-0.14903846153846154,-0.17307692307692307,-0.1971153846153846,-0.21153846153846154,-0.23076923076923075,-0.25961538461538464,-0.24038461538461536,-0.2740384615384615,-0.2692307692307693,-0.2548076923076923,-0.2548076923076923,-0.24038461538461536,-0.24038461538461536,-0.2451923076923077,-0.21153846153846154,-0.2019230769230769,-0.17307692307692307,-0.17307692307692307,-0.16346153846153846,-0.16826923076923075,-0.16346153846153846,-0.16826923076923075,-0.15865384615384615,-0.15384615384615385,-0.15865384615384615,-0.13461538461538464,-0.14423076923076922,-0.1394230769230769,-0.13461538461538464,-0.15865384615384615,-0.15865384615384615,-0.14423076923076922,-0.12019230769230768,-0.12980769230769232,-0.125,-0.125,-0.125,-0.12980769230769232,-0.15865384615384615,-0.15865384615384615,-0.1394230769230769,-0.125,-0.14423076923076922,-0.16826923076923075,-0.16346153846153846,-0.16826923076923075,-0.18269230769230768,-0.18269230769230768,-0.16346153846153846,-0.1875,-0.1875,-0.1875,-0.1971153846153846,-0.1971153846153846,-0.2019230769230769,-0.21634615384615385,-0.2067307692307692,-0.2067307692307692,-0.22115384615384612,-0.22596153846153846,-0.21153846153846154,-0.24038461538461536,-0.24038461538461536,-0.2355769230769231,-0.22596153846153846,-0.24038461538461536,-0.2548076923076923,-0.2740384615384615,-0.28846153846153844,-0.28846153846153844,-0.30288461538461536,-0.3125,-0.2836538461538461,-0.2692307692307693,-0.2644230769230769,-0.2692307692307693,-0.2548076923076923,-0.25,-0.21153846153846154,-0.21153846153846154,-0.2067307692307692,-0.19230769230769232,-0.1875,-0.16826923076923075,-0.18269230769230768,-0.17307692307692307,-0.18269230769230768,-0.18269230769230768,-0.17307692307692307,-0.17307692307692307,-0.17307692307692307,-0.18269230769230768,-0.18269230769230768,-0.18269230769230768,-0.17788461538461536,-0.17307692307692307,-0.16826923076923075,-0.17307692307692307,-0.16826923076923075,-0.1875,-0.2019230769230769,-0.19230769230769232,-0.18269230769230768,-0.1971153846153846,-0.2019230769230769,-0.19230769230769232,-0.18269230769230768,-0.19230769230769232,-0.21153846153846154,-0.21634615384615385,-0.21634615384615385,-0.21634615384615385,-0.23076923076923075,-0.22115384615384612,-0.2067307692307692,-0.22115384615384612,-0.24038461538461536,-0.23076923076923075,-0.21153846153846154,-0.2355769230769231,-0.23076923076923075,-0.21634615384615385,-0.2355769230769231,-0.22596153846153846,-0.25,-0.2548076923076923,-0.23076923076923075,-0.2451923076923077,-0.25961538461538464,-0.2740384615384615,-0.2836538461538461,-0.28846153846153844,-0.2980769230769231,-0.3173076923076923,-0.30288461538461536,-0.2980769230769231,-0.2788461538461538,-0.2740384615384615,-0.2355769230769231,-0.22115384615384612,-0.22596153846153846,-0.21634615384615385,-0.21153846153846154,-0.19230769230769232,-0.19230769230769232,-0.19230769230769232,-0.17788461538461536,-0.16346153846153846,-0.17307692307692307,-0.18269230769230768,-0.16826923076923075,-0.14903846153846154,-0.15865384615384615,-0.14423076923076922,-0.14903846153846154,-0.125,-0.14423076923076922,-0.15865384615384615,-0.15384615384615385,-0.1394230769230769,-0.12980769230769232,-0.15384615384615385,-0.15384615384615385,-0.14903846153846154,-0.12019230769230768,-0.04326923076923077,0.11538461538461538,0.32211538461538464,0.548076923076923,0.7548076923076923,0.9134615384615384,0.9471153846153846,0.735576923076923,0.3125,-0.16826923076923075,-0.4855769230769231,-0.6057692307692307,-0.6009615384615384,-0.5528846153846153,-0.4423076923076923,-0.3365384615384615,-0.3125,-0.2932692307692307,-0.2836538461538461,-0.2836538461538461,-0.2980769230769231,-0.2932692307692307,-0.2836538461538461,-0.28846153846153844,-0.30288461538461536,-0.3269230769230769,-0.3269230769230769,-0.3461538461538461,-0.35096153846153844,-0.36538461538461536,-0.3557692307692307,-0.3413461538461538,-0.3461538461538461,-0.35096153846153844,-0.3365384615384615,-0.32211538461538464,-0.30288461538461536,-0.2980769230769231,-0.2740384615384615,-0.2740384615384615,-0.2644230769230769,-0.2692307692307693,-0.25,-0.23076923076923075,-0.23076923076923075,-0.23076923076923075,-0.2019230769230769,0.0,0.0,0.0,0.0,0
-0.07339449541284403,0.08715596330275227,0.2935779816513761,0.5,0.6743119266055045,0.7844036697247706,0.7201834862385321,0.4678899082568807,0.055045871559633024,-0.3761467889908257,-0.646788990825688,-0.7201834862385321,-0.6788990825688073,-0.5963302752293578,-0.4678899082568807,-0.3440366972477064,-0.2889908256880734,-0.2660550458715596,-0.2568807339449541,-0.2568807339449541,-0.24311926605504586,-0.24311926605504586,-0.24311926605504586,-0.2201834862385321,-0.23394495412844035,-0.23394495412844035,-0.2385321100917431,-0.2385321100917431,-0.23394495412844035,-0.22477064220183485,-0.2385321100917431,-0.2477064220183486,-0.2568807339449541,-0.2614678899082568,-0.2798165137614679,-0.2752293577981651,-0.2889908256880734,-0.3027522935779817,-0.3256880733944953,-0.3256880733944953,-0.3256880733944953,-0.31651376146788984,-0.33944954128440363,-0.3348623853211009,-0.34862385321100914,-0.33944954128440363,-0.3440366972477064,-0.34862385321100914,-0.35779816513761464,-0.35779816513761464,-0.3669724770642202,-0.34862385321100914,-0.3715596330275229,-0.3715596330275229,-0.3761467889908257,-0.3715596330275229,-0.3623853211009174,-0.34862385321100914,-0.35779816513761464,-0.3532110091743119,-0.35779816513761464,-0.34862385321100914,-0.34862385321100914,-0.33944954128440363,-0.33944954128440363,-0.3211009174311926,-0.31651376146788984,-0.2935779816513761,-0.2798165137614679,-0.2660550458715596,-0.2706422018348624,-0.2568807339449541,-0.2385321100917431,-0.2385321100917431,-0.22477064220183485,-0.20642201834862384,-0.20183486238532108,-0.1834862385321101,-0.16972477064220182,-0.16972477064220182,-0.1559633027522936,-0.12844036697247707,-0.11926605504587155,-0.1238532110091743,-0.1238532110091743,-0.11926605504587155,-0.1146788990825688,-0.11926605504587155,-0.11926605504587155,-0.1238532110091743,-0.11926605504587155,-0.11009174311926603,-0.11009174311926603,-0.1055045871559633,-0.1146788990825688,-0.10091743119266054,-0.09174311926605504,-0.10091743119266054,-0.10091743119266054,-0.09174311926605504,-0.0963302752293578,-0.1055045871559633,-0.11009174311926603,-0.1238532110091743,-0.1238532110091743,-0.1330275229357798,-0.15137614678899086,-0.1605504587155963,-0.16513761467889904,-0.17889908256880732,-0.1834862385321101,-0.18807339449541285,-0.20642201834862384,-0.19724770642201836,-0.19724770642201836,-0.19724770642201836,-0.19724770642201836,-0.20642201834862384,-0.21559633027522931,-0.20183486238532108,-0.19724770642201836,-0.2110091743119266,-0.2201834862385321,-0.20642201834862384,-0.20183486238532108,-0.20183486238532108,-0.20642201834862384,-0.20183486238532108,-0.20183486238532108,-0.20183486238532108,-0.1926605504587156,-0.1926605504587156,-0.19724770642201836,-0.19724770642201836,-0.20642201834862384,-0.20642201834862384,-0.20183486238532108,-0.20642201834862384,-0.2110091743119266,-0.21559633027522931,-0.20183486238532108,-0.19724770642201836,-0.1834862385321101,-0.19724770642201836,-0.20183486238532108,-0.1926605504587156,-0.19724770642201836,-0.18807339449541285,-0.19724770642201836,-0.20183486238532108,-0.20183486238532108,-0.1926605504587156,-0.19724770642201836,-0.20183486238532108,-0.19724770642201836,-0.20183486238532108,-0.20642201834862384,-0.20183486238532108,-0.20642201834862384,-0.21559633027522931,-0.2110091743119266,-0.1926605504587156,-0.20183486238532108,-0.20642201834862384,-0.19724770642201836,-0.1926605504587156,-0.19724770642201836,-0.17431192660550454,-0.18807339449541285,-0.16513761467889904,-0.16972477064220182,-0.16513761467889904,-0.15137614678899086,-0.14678899082568805,-0.15137614678899086,-0.15137614678899086,-0.1559633027522936,-0.1559633027522936,0.0,0.0,0.0,0.0,0.0,0.0,0.0,0.0,0.0,0.0,0.0,0.0,0.0,0.0,0.0,0.0,0.0,0.0,0.0,0.0,0.0,0.0,0.0,0.0,0.0,0.0,0.0,0.0,0.0,0.0,0.0,0.0,0.0,0.0,0.0,0.0,0.0,0.0,0.0,0.0,0.0,0.0,0.0,0.0,0.0,0.0,0.0,0.0,0.0,0.0,0.0,0.0,0.0,0.0,0.0,0.0,0.0,0.0,0.0,0.0,0.0,0.0,0.0,0.0,0.0,0.0,0.0,0.0,0.0,0.0,0.0,0.0,0.0,0.0,0.0,0.0,0.0,0.0,0.0,0.0,0.0,0.0,0.0,0.0,0.0,0.0,0.0,0.0,0.0,0.0,0.0,0.0,0.0,0.0,0.0,0.0,0.0,0.0,0.0,0.0,0.0,0.0,0.0,0.0,0.0,0.0,0.0,0.0,0.0,0.0,0.0,0.0,0.0,0.0,0.0,0.0,0.0,0.0,0.0,0.0,0.0,0.0,0
0.05,0.2318181818181818,0.44545454545454544,0.6454545454545454,0.759090909090909,0.7545454545454544,0.5363636363636363,0.13636363636363635,-0.30454545454545456,-0.6090909090909091,-0.7,-0.6681818181818181,-0.5727272727272726,-0.4363636363636363,-0.3318181818181818,-0.2636363636363636,-0.20454545454545453,-0.20454545454545453,-0.21818181818181812,-0.2272727272727273,-0.22272727272727272,-0.2363636363636364,-0.21818181818181812,-0.2136363636363636,-0.20909090909090908,-0.2363636363636364,-0.2318181818181818,-0.2318181818181818,-0.22272727272727272,-0.2409090909090909,-0.2409090909090909,-0.2272727272727273,-0.2409090909090909,-0.2318181818181818,-0.2318181818181818,-0.24545454545454545,-0.2409090909090909,-0.2363636363636364,-0.21818181818181812,-0.2272727272727273,-0.2136363636363636,-0.2318181818181818,-0.22272727272727272,-0.2136363636363636,-0.21818181818181812,-0.20909090909090908,-0.2136363636363636,-0.20909090909090908,-0.20454545454545453,-0.20909090909090908,-0.20454545454545453,-0.2,-0.2136363636363636,-0.20454545454545453,-0.18636363636363634,-0.2,-0.1909090909090909,-0.20454545454545453,-0.1909090909090909,-0.18181818181818185,-0.1727272727272727,-0.1909090909090909,-0.18636363636363634,-0.18181818181818185,-0.17727272727272728,-0.1909090909090909,-0.18181818181818185,-0.1909090909090909,-0.17727272727272728,-0.1636363636363636,-0.1318181818181818,-0.12272727272727273,-0.1272727272727273,-0.12272727272727273,-0.10454545454545454,-0.07272727272727272,-0.08636363636363635,-0.09545454545454543,-0.09545454545454543,-0.09545454545454543,-0.10909090909090907,-0.1,-0.09545454545454543,-0.11818181818181818,-0.1272727272727273,-0.12272727272727273,-0.1318181818181818,-0.1318181818181818,-0.1318181818181818,-0.1318181818181818,-0.1272727272727273,-0.1409090909090909,-0.15,-0.15909090909090906,-0.16818181818181815,-0.18181818181818185,-0.15909090909090906,-0.15909090909090906,-0.16818181818181815,-0.1636363636363636,-0.1636363636363636,-0.15,-0.14545454545454545,-0.13636363636363635,-0.1409090909090909,-0.15454545454545454,-0.14545454545454545,-0.1409090909090909,-0.14545454545454545,-0.1409090909090909,-0.13636363636363635,-0.13636363636363635,-0.1409090909090909,-0.1272727272727273,-0.1409090909090909,-0.13636363636363635,-0.1272727272727273,-0.10909090909090907,-0.10909090909090907,-0.11363636363636365,-0.10454545454545454,-0.1,-0.09545454545454543,-0.07727272727272727,-0.08636363636363635,-0.07272727272727272,-0.08636363636363635,-0.08636363636363635,-0.0818181818181818,-0.07727272727272727,-0.08636363636363635,-0.12272727272727273,-0.1272727272727273,-0.13636363636363635,-0.13636363636363635,-0.14545454545454545,-0.15909090909090906,-0.16818181818181815,-0.1636363636363636,-0.16818181818181815,-0.15909090909090906,-0.1318181818181818,-0.03181818181818182,0.1409090909090909,0.3545454545454545,0.5863636363636363,0.759090909090909,0.8318181818181818,0.7363636363636363,0.4,-0.045454545454545456,-0.44545454545454544,-0.6636363636363636,-0.7,-0.6499999999999999,-0.5545454545454545,-0.43181818181818177,-0.3272727272727272,-0.2681818181818181,-0.25,-0.2409090909090909,-0.2409090909090909,-0.2636363636363636,-0.2636363636363636,-0.25909090909090904,-0.2681818181818181,-0.25909090909090904,-0.25909090909090904,-0.2636363636363636,-0.2636363636363636,-0.2545454545454546,-0.25909090909090904,-0.24545454545454545,-0.25,-0.2636363636363636,-0.25909090909090904,-0.2409090909090909,-0.24545454545454545,-0.2545454545454546,-0.25,-0.25,-0.2409090909090909,-0.2363636363636364,-0.2363636363636364,-0.24545454545454545,-0.2409090909090909,-0.2272727272727273,-0.22272727272727272,-0.2363636363636364,-0.22272727272727272,-0.22272727272727272,-0.20909090909090908,-0.20454545454545453,-0.20909090909090908,-0.20454545454545453,-0.20454545454545453,-0.21818181818181812,-0.1909090909090909,-0.2,-0.2136363636363636,-0.2272727272727273,-0.21818181818181812,0.0,0.0,0.0,0.0,0.0,0.0,0.0,0.0,0.0,0.0,0.0,0.0,0.0,0.0,0.0,0.0,0.0,0.0,0.0,0.0,0.0,0.0,0.0,0.0,0.0,0.0,0.0,0.0,0.0,0.0,0.0,0.0,0.0,0.0,0.0,0.0,0.0,0.0,0.0,0.0,0.0,0.0,0.0,0.0,0.0,0.0,0.0,0.0,0.0,0.0,0.0,0.0,0.0,0.0,0.0,0.0,0.0,0.0,0.0,0.0,0.0,0.0,0.0,0.0,0.0,0.0,0.0,0.0,0.0,0.0,0.0,0.0,0.0,0.0,0.0,0.0,0.0,0.0,0.0,0.0,0.0,0.0,0.0,0.0,0.0,0.0,0.0,0.0,0.0,0.0,0.0,0.0,0.0,0.0,0.0,0.0,0.0,0.0,0
-0.15,-0.028571428571428574,0.15714285714285714,0.4214285714285714,0.6714285714285715,0.8714285714285714,0.9857142857142857,0.9285714285714288,0.6714285714285715,0.22142857142857145,-0.32142857142857145,-0.7000000000000001,-0.85,-0.8571428571428572,-0.7500000000000001,-0.5714285714285715,-0.4285714285714286,-0.31428571428571433,-0.2642857142857143,-0.2428571428571429,-0.2571428571428572,-0.2428571428571429,-0.2571428571428572,-0.2428571428571429,-0.2285714285714286,-0.25,-0.2571428571428572,-0.2428571428571429,-0.25,-0.2571428571428572,-0.25,-0.25,-0.2428571428571429,-0.2357142857142857,-0.2428571428571429,-0.2428571428571429,-0.2642857142857143,-0.25,-0.27142857142857146,-0.2642857142857143,-0.2642857142857143,-0.2571428571428572,-0.27142857142857146,-0.2571428571428572,-0.27142857142857146,-0.2571428571428572,-0.2857142857142857,-0.2642857142857143,-0.2857142857142857,-0.3,-0.3,-0.2928571428571429,-0.2785714285714286,-0.2928571428571429,-0.27142857142857146,-0.2285714285714286,-0.2285714285714286,-0.22142857142857145,-0.2142857142857143,-0.18571428571428567,-0.20000000000000004,-0.1928571428571429,-0.17857142857142858,-0.18571428571428567,-0.15714285714285714,-0.15714285714285714,-0.1642857142857143,-0.14285714285714288,-0.1285714285714286,-0.13571428571428573,-0.1285714285714286,-0.1142857142857143,-0.10714285714285716,-0.1142857142857143,-0.08571428571428573,-0.07142857142857144,-0.07857142857142857,-0.05714285714285715,-0.05714285714285715,-0.03571428571428572,-0.042857142857142864,-0.028571428571428574,-0.042857142857142864,-0.03571428571428572,-0.07142857142857144,-0.03571428571428572,-0.05000000000000001,-0.07142857142857144,-0.07857142857142857,-0.07857142857142857,-0.05714285714285715,-0.09285714285714286,-0.08571428571428573,-0.10000000000000002,-0.10000000000000002,-0.12142857142857146,-0.14285714285714288,-0.13571428571428573,-0.12142857142857146,-0.14285714285714288,-0.15,-0.17142857142857146,-0.15,-0.15,-0.15714285714285714,-0.15714285714285714,-0.1285714285714286,-0.17142857142857146,-0.17142857142857146,-0.17142857142857146,-0.17142857142857146,-0.17142857142857146,-0.15714285714285714,-0.20714285714285716,-0.1928571428571429,-0.17857142857142858,-0.18571428571428567,-0.18571428571428567,-0.18571428571428567,-0.18571428571428567,-0.18571428571428567,-0.17857142857142858,-0.17857142857142858,-0.20000000000000004,-0.18571428571428567,-0.17857142857142858,-0.18571428571428567,-0.18571428571428567,-0.17142857142857146,-0.17142857142857146,-0.1642857142857143,-0.15714285714285714,-0.15714285714285714,-0.15,-0.18571428571428567,-0.17142857142857146,-0.17857142857142858,-0.20000000000000004,-0.1928571428571429,-0.20000000000000004,-0.1928571428571429,-0.18571428571428567,-0.20000000000000004,-0.1928571428571429,-0.18571428571428567,-0.17857142857142858,-0.2142857142857143,-0.20714285714285716,-0.2285714285714286,-0.2142857142857143,-0.2142857142857143,-0.2142857142857143,-0.22142857142857145,-0.20714285714285716,-0.20714285714285716,-0.2357142857142857,-0.25,-0.2285714285714286,-0.2571428571428572,-0.2285714285714286,-0.2428571428571429,-0.2428571428571429,-0.2428571428571429,-0.2428571428571429,-0.25,-0.25,-0.2571428571428572,-0.2142857142857143,-0.2285714285714286,-0.2357142857142857,-0.2357142857142857,-0.2285714285714286,-0.2357142857142857,-0.22142857142857145,-0.2428571428571429,-0.2428571428571429,-0.2285714285714286,-0.2285714285714286,-0.2285714285714286,-0.2357142857142857,-0.2571428571428572,-0.2642857142857143,-0.25,-0.27142857142857146,-0.2357142857142857,-0.2428571428571429,-0.2285714285714286,-0.2642857142857143,-0.2785714285714286,-0.2785714285714286,-0.2857142857142857,-0.2571428571428572,-0.2571428571428572,-0.2571428571428572,-0.25,-0.2428571428571429,-0.25,-0.2428571428571429,-0.2571428571428572,-0.25,-0.2428571428571429,-0.2428571428571429,-0.2428571428571429,-0.25,-0.25,-0.2642857142857143,-0.2571428571428572,-0.25,-0.27142857142857146,-0.27142857142857146,-0.25,-0.27142857142857146,-0.27142857142857146,-0.2571428571428572,-0.27142857142857146,-0.2857142857142857,-0.2857142857142857,-0.27142857142857146,-0.2642857142857143,-0.25,-0.25,-0.2642857142857143,-0.2428571428571429,-0.2571428571428572,-0.25,-0.25,-0.2285714285714286,-0.2571428571428572,-0.2642857142857143,-0.2571428571428572,-0.2571428571428572,-0.2428571428571429,0.0,0.0,0.0,0.0,0.0,0.0,0.0,0.0,0.0,0.0,0.0,0.0,0.0,0.0,0.0,0.0,0.0,0.0,0.0,0.0,0.0,0.0,0.0,0.0,0.0,0.0,0.0,0.0,0.0,0.0,0.0,0.0,0.0,0.0,0.0,0.0,0.0,0.0,0.0,0.0,0.0,0.0,0.0,0.0,0.0,0.0,0.0,0.0,0.0,0.0,0.0,0.0,0.0,0.0,0.0,0.0,0.0,0.0,0.0,0.0,0.0,0.0,0.0,0.0,0.0,0.0,0.0,0.0,0
0.03153153153153153,0.2162162162162162,0.4234234234234234,0.6846846846846847,0.8693693693693693,0.945945945945946,0.8423423423423423,0.5495495495495495,0.08108108108108107,-0.3648648648648649,-0.572072072072072,-0.5855855855855856,-0.5225225225225224,-0.4549549549549549,-0.3828828828828829,-0.31081081081081074,-0.28378378378378377,-0.27477477477477474,-0.28378378378378377,-0.2657657657657657,-0.28378378378378377,-0.2972972972972973,-0.3153153153153153,-0.3018018018018018,-0.31081081081081074,-0.31081081081081074,-0.3018018018018018,-0.3063063063063063,-0.2972972972972973,-0.3153153153153153,-0.3198198198198198,-0.31081081081081074,-0.31081081081081074,-0.34234234234234234,-0.3783783783783784,-0.3693693693693693,-0.35585585585585583,-0.3513513513513513,-0.3738738738738738,-0.3693693693693693,-0.3468468468468468,-0.33783783783783783,-0.34234234234234234,-0.3288288288288288,-0.31081081081081074,-0.31081081081081074,-0.3243243243243243,-0.31081081081081074,-0.3063063063063063,-0.3018018018018018,-0.3018018018018018,-0.28378378378378377,-0.27027027027027023,-0.27027027027027023,-0.2972972972972973,-0.3153153153153153,-0.2792792792792793,-0.2612612612612612,-0.2612612612612612,-0.2657657657657657,-0.27027027027027023,-0.25225225225225223,-0.23423423423423426,-0.23873873873873874,-0.2252252252252252,-0.19819819819819814,-0.18018018018018014,-0.15765765765765766,-0.14864864864864866,-0.12612612612612611,-0.0945945945945946,-0.1081081081081081,-0.1081081081081081,-0.09009009009009007,-0.07207207207207207,-0.08108108108108107,-0.07657657657657657,-0.06306306306306306,-0.040540540540540536,-0.06306306306306306,-0.0945945945945946,-0.08558558558558559,-0.07657657657657657,-0.09909909909909907,-0.11711711711711713,-0.1081081081081081,-0.1216216216216216,-0.1306306306306306,-0.13963963963963966,-0.1306306306306306,-0.13963963963963966,-0.16666666666666666,-0.17117117117117114,-0.16216216216216214,-0.14864864864864866,-0.17567567567567566,-0.19819819819819814,-0.2072072072072072,-0.19819819819819814,-0.2162162162162162,-0.2027027027027027,-0.19819819819819814,-0.2027027027027027,-0.2027027027027027,-0.2252252252252252,-0.2477477477477477,-0.2477477477477477,-0.2657657657657657,-0.28378378378378377,-0.27027027027027023,-0.25225225225225223,-0.2567567567567567,-0.2792792792792793,-0.2477477477477477,-0.23873873873873874,-0.24324324324324326,-0.24324324324324326,-0.2297297297297297,-0.19819819819819814,-0.19369369369369369,-0.2027027027027027,-0.1891891891891892,-0.17117117117117114,-0.17117117117117114,-0.18018018018018014,-0.16216216216216214,-0.14414414414414414,-0.17567567567567566,-0.18018018018018014,-0.18468468468468466,-0.16216216216216214,-0.16666666666666666,-0.17567567567567566,-0.15765765765765766,-0.13963963963963966,-0.14414414414414414,-0.16216216216216214,-0.16666666666666666,-0.16216216216216214,-0.15765765765765766,-0.18018018018018014,-0.16666666666666666,-0.16216216216216214,-0.16216216216216214,-0.17567567567567566,-0.16666666666666666,-0.16216216216216214,-0.16666666666666666,-0.18468468468468466,-0.1891891891891892,-0.14414414414414414,-0.058558558558558564,0.08558558558558559,0.2972972972972973,0.545045045045045,0.7702702702702702,0.8963963963963963,0.8378378378378378,0.536036036036036,0.1126126126126126,-0.31081081081081074,-0.581081081081081,-0.6261261261261261,-0.5765765765765766,-0.463963963963964,-0.3828828828828829,-0.3018018018018018,-0.2657657657657657,-0.27027027027027023,-0.27477477477477474,-0.28378378378378377,-0.27027027027027023,-0.3018018018018018,-0.3063063063063063,-0.2882882882882883,-0.27477477477477474,-0.2882882882882883,0.0,0.0,0.0,0.0,0.0,0.0,0.0,0.0,0.0,0.0,0.0,0.0,0.0,0.0,0.0,0.0,0.0,0.0,0.0,0.0,0.0,0.0,0.0,0.0,0.0,0.0,0.0,0.0,0.0,0.0,0.0,0.0,0.0,0.0,0.0,0.0,0.0,0.0,0.0,0.0,0.0,0.0,0.0,0.0,0.0,0.0,0.0,0.0,0.0,0.0,0.0,0.0,0.0,0.0,0.0,0.0,0.0,0.0,0.0,0.0,0.0,0.0,0.0,0.0,0.0,0.0,0.0,0.0,0.0,0.0,0.0,0.0,0.0,0.0,0.0,0.0,0.0,0.0,0.0,0.0,0.0,0.0,0.0,0.0,0.0,0.0,0.0,0.0,0.0,0.0,0.0,0.0,0.0,0.0,0.0,0.0,0.0,0.0,0.0,0.0,0.0,0.0,0.0,0.0,0.0,0.0,0.0,0.0,0.0,0.0,0.0,0.0,0.0,0.0,0.0,0.0,0.0,0.0,0.0,0.0,0.0,0.0,0.0,0
0.7850877192982457,0.543859649122807,0.13596491228070176,-0.30701754385964913,-0.5701754385964913,-0.6140350877192983,-0.5570175438596492,-0.4342105263157895,-0.32456140350877194,-0.22368421052631585,-0.1754385964912281,-0.15789473684210528,-0.1754385964912281,-0.1842105263157895,-0.17982456140350878,-0.15789473684210528,-0.16228070175438594,-0.16228070175438594,-0.16666666666666669,-0.15789473684210528,-0.16228070175438594,-0.16228070175438594,-0.14912280701754388,-0.15789473684210528,-0.15350877192982454,-0.14035087719298248,-0.12280701754385967,-0.12280701754385967,-0.13157894736842105,-0.13596491228070176,-0.11403508771929825,-0.11842105263157895,-0.11403508771929825,-0.12719298245614036,-0.12719298245614036,-0.13596491228070176,-0.13596491228070176,-0.13596491228070176,-0.16228070175438594,-0.16666666666666669,-0.17982456140350878,-0.1842105263157895,-0.1929824561403509,-0.1929824561403509,-0.2149122807017544,-0.2280701754385965,-0.22368421052631585,-0.2280701754385965,-0.22368421052631585,-0.24122807017543865,-0.24122807017543865,-0.23684210526315794,-0.2324561403508772,-0.2324561403508772,-0.23684210526315794,-0.23684210526315794,-0.2280701754385965,-0.2149122807017544,-0.2149122807017544,-0.2105263157894737,-0.1973684210526316,-0.1929824561403509,-0.1754385964912281,-0.16228070175438594,-0.15350877192982454,-0.11842105263157895,-0.11842105263157895,-0.10526315789473684,-0.08333333333333334,-0.07017543859649124,-0.05701754385964913,-0.048245614035087724,-0.03947368421052632,-0.02192982456140351,-0.013157894736842106,-0.01754385964912281,-0.030701754385964918,-0.04385964912280702,-0.03947368421052632,-0.05701754385964913,-0.052631578947368425,-0.07017543859649124,-0.07456140350877194,-0.08771929824561404,-0.08771929824561404,-0.08333333333333334,-0.07894736842105264,-0.10087719298245616,-0.10526315789473684,-0.10087719298245616,-0.09210526315789476,-0.08333333333333334,-0.09210526315789476,-0.07894736842105264,-0.08333333333333334,-0.061403508771929835,-0.052631578947368425,-0.061403508771929835,-0.061403508771929835,-0.048245614035087724,-0.048245614035087724,-0.048245614035087724,-0.052631578947368425,-0.05701754385964913,-0.07456140350877194,-0.061403508771929835,-0.07456140350877194,-0.08771929824561404,-0.10087719298245616,-0.11403508771929825,-0.10964912280701757,-0.11403508771929825,-0.11842105263157895,-0.11842105263157895,-0.13157894736842105,-0.13157894736842105,-0.13157894736842105,-0.13596491228070176,-0.14912280701754388,-0.14473684210526316,-0.14912280701754388,-0.14473684210526316,-0.15350877192982454,-0.14035087719298248,-0.15789473684210528,-0.16228070175438594,-0.15350877192982454,-0.06578947368421052,0.06578947368421052,0.2456140350877193,0.4342105263157895,0.5745614035087719,0.662280701754386,0.6008771929824562,0.33333333333333337,-0.07456140350877194,-0.4605263157894737,-0.6491228070175439,-0.6447368421052632,-0.5570175438596492,-0.4429824561403509,-0.32894736842105265,-0.23684210526315794,-0.1842105263157895,-0.18859649122807015,-0.1754385964912281,-0.17982456140350878,-0.17982456140350878,-0.18859649122807015,-0.18859649122807015,-0.20614035087719296,-0.1929824561403509,-0.1929824561403509,-0.1929824561403509,-0.1929824561403509,-0.17982456140350878,-0.2017543859649123,-0.18859649122807015,-0.2017543859649123,-0.18859649122807015,-0.18859649122807015,-0.17982456140350878,-0.1710526315789474,-0.1754385964912281,-0.16666666666666669,-0.1710526315789474,-0.1754385964912281,-0.1710526315789474,-0.15789473684210528,-0.14912280701754388,-0.16228070175438594,-0.16666666666666669,-0.1710526315789474,-0.1754385964912281,-0.18859649122807015,-0.18859649122807015,0.0,0.0,0.0,0.0,0.0,0.0,0.0,0.0,0.0,0.0,0.0,0.0,0.0,0.0,0.0,0.0,0.0,0.0,0.0,0.0,0.0,0.0,0.0,0.0,0.0,0.0,0.0,0.0,0.0,0.0,0.0,0.0,0.0,0.0,0.0,0.0,0.0,0.0,0.0,0.0,0.0,0.0,0.0,0.0,0.0,0.0,0.0,0.0,0.0,0.0,0.0,0.0,0.0,0.0,0.0,0.0,0.0,0.0,0.0,0.0,0.0,0.0,0.0,0.0,0.0,0.0,0.0,0.0,0.0,0.0,0.0,0.0,0.0,0.0,0.0,0.0,0.0,0.0,0.0,0.0,0.0,0.0,0.0,0.0,0.0,0.0,0.0,0.0,0.0,0.0,0.0,0.0,0.0,0.0,0.0,0.0,0.0,0.0,0.0,0.0,0.0,0.0,0.0,0.0,0.0,0.0,0.0,0.0,0.0,0.0,0.0,0.0,0.0,0.0,0.0,0.0,0.0,0.0,0.0,0.0,0.0,0.0,0.0,0.0,0
-0.10267857142857142,0.0,0.1607142857142857,0.3526785714285714,0.5803571428571428,0.7678571428571428,0.8839285714285713,0.6339285714285713,0.23660714285714285,-0.18303571428571425,-0.4508928571428571,-0.5267857142857142,-0.5133928571428571,-0.4464285714285714,-0.3214285714285714,-0.2232142857142857,-0.17857142857142858,-0.16964285714285712,-0.16964285714285712,-0.20089285714285712,-0.20089285714285712,-0.21428571428571425,-0.21428571428571425,-0.2232142857142857,-0.2321428571428571,-0.2321428571428571,-0.21428571428571425,-0.2321428571428571,-0.23660714285714285,-0.25,-0.24107142857142855,-0.2455357142857143,-0.24107142857142855,-0.25,-0.2589285714285714,-0.2633928571428571,-0.25446428571428564,-0.25446428571428564,-0.2633928571428571,-0.2589285714285714,-0.25,-0.25,-0.25446428571428564,-0.25,-0.2589285714285714,-0.2723214285714285,-0.2723214285714285,-0.2633928571428571,-0.25446428571428564,-0.2589285714285714,-0.2633928571428571,-0.2723214285714285,-0.25446428571428564,-0.2589285714285714,-0.25,-0.2589285714285714,-0.2633928571428571,-0.2455357142857143,-0.2321428571428571,-0.22767857142857145,-0.22767857142857145,-0.23660714285714285,-0.23660714285714285,-0.21428571428571425,-0.2232142857142857,-0.2321428571428571,-0.21875,-0.20982142857142852,-0.1919642857142857,-0.17410714285714285,-0.16964285714285712,-0.13839285714285712,-0.13839285714285712,-0.10714285714285712,-0.08482142857142856,-0.08035714285714285,-0.058035714285714274,-0.049107142857142856,-0.04017857142857143,-0.03571428571428571,-0.049107142857142856,-0.04464285714285714,-0.05357142857142856,-0.0625,-0.07142857142857142,-0.08482142857142856,-0.08928571428571429,-0.08035714285714285,-0.09375,-0.10714285714285712,-0.12053571428571427,-0.12053571428571427,-0.13392857142857142,-0.125,-0.14732142857142858,-0.14732142857142858,-0.1607142857142857,-0.16517857142857142,-0.16517857142857142,-0.1607142857142857,-0.1607142857142857,-0.16517857142857142,-0.18303571428571425,-0.17857142857142858,-0.1607142857142857,-0.1607142857142857,-0.16517857142857142,-0.1607142857142857,-0.16517857142857142,-0.1607142857142857,-0.1607142857142857,-0.15624999999999994,-0.17857142857142858,-0.18303571428571425,-0.16517857142857142,-0.17857142857142858,-0.1607142857142857,-0.14285714285714285,-0.14285714285714285,-0.1607142857142857,-0.1294642857142857,-0.12053571428571427,-0.1294642857142857,-0.14285714285714285,-0.12053571428571427,-0.12053571428571427,-0.11607142857142855,-0.09821428571428573,-0.10267857142857142,-0.10267857142857142,-0.08928571428571429,-0.09821428571428573,-0.10267857142857142,-0.10714285714285712,-0.08928571428571429,-0.08928571428571429,-0.07589285714285714,-0.08482142857142856,-0.06696428571428571,-0.07142857142857142,-0.07142857142857142,-0.06696428571428571,-0.06696428571428571,-0.06696428571428571,-0.0625,-0.07142857142857142,-0.09821428571428573,-0.10267857142857142,-0.10714285714285712,-0.1294642857142857,-0.13392857142857142,-0.1294642857142857,-0.15178571428571427,-0.13392857142857142,-0.14732142857142858,-0.14732142857142858,-0.1607142857142857,-0.14732142857142858,-0.15624999999999994,-0.1607142857142857,-0.15178571428571427,-0.16964285714285712,-0.16517857142857142,-0.15624999999999994,-0.1607142857142857,-0.16517857142857142,-0.16517857142857142,-0.16517857142857142,-0.15178571428571427,-0.16964285714285712,-0.17410714285714285,-0.16964285714285712,-0.16964285714285712,-0.15624999999999994,-0.1607142857142857,-0.1607142857142857,-0.17410714285714285,-0.16964285714285712,-0.15624999999999994,-0.17410714285714285,-0.16964285714285712,-0.17857142857142858,-0.17857142857142858,-0.17857142857142858,-0.16517857142857142,-0.1607142857142857,-0.16517857142857142,-0.1607142857142857,-0.16964285714285712,-0.14285714285714285,-0.1607142857142857,-0.15624999999999994,-0.14285714285714285,-0.14285714285714285,-0.14732142857142858,-0.1294642857142857,-0.13392857142857142,-0.1294642857142857,-0.125,-0.12053571428571427,-0.10267857142857142,-0.11607142857142855,-0.10267857142857142,-0.10267857142857142,-0.10267857142857142,-0.08482142857142856,-0.09375,-0.08928571428571429,-0.08035714285714285,-0.08035714285714285,-0.08035714285714285,-0.08035714285714285,-0.10267857142857142,-0.09821428571428573,-0.11607142857142855,-0.12053571428571427,-0.14732142857142858,-0.14285714285714285,-0.15178571428571427,-0.15624999999999994,-0.16517857142857142,-0.14732142857142858,-0.1607142857142857,-0.17410714285714285,-0.16964285714285712,-0.1607142857142857,-0.1607142857142857,-0.18303571428571425,-0.17857142857142858,-0.17857142857142858,-0.16517857142857142,-0.16964285714285712,0.0,0.0,0.0,0.0,0.0,0.0,0.0,0.0,0.0,0.0,0.0,0.0,0.0,0.0,0.0,0.0,0.0,0.0,0.0,0.0,0.0,0.0,0.0,0.0,0.0,0.0,0.0,0.0,0.0,0.0,0.0,0.0,0.0,0.0,0.0,0.0,0.0,0.0,0.0,0.0,0.0,0.0,0.0,0.0,0.0,0.0,0.0,0.0,0.0,0.0,0.0,0.0,0.0,0.0,0.0,0.0,0.0,0.0,0.0,0.0,0.0,0.0,0.0,0.0,0.0,0.0,0.0,0.0,0
0.8954545454545454,0.6499999999999999,0.2636363636363636,-0.17727272727272728,-0.5045454545454545,-0.6090909090909091,-0.6136363636363636,-0.5499999999999999,-0.4363636363636363,-0.3318181818181818,-0.2863636363636363,-0.24545454545454545,-0.2409090909090909,-0.25,-0.2409090909090909,-0.2545454545454546,-0.2545454545454546,-0.2545454545454546,-0.24545454545454545,-0.2545454545454546,-0.25909090909090904,-0.25,-0.2409090909090909,-0.2409090909090909,-0.2318181818181818,-0.24545454545454545,-0.2636363636363636,-0.2772727272727272,-0.25,-0.2363636363636364,-0.2409090909090909,-0.24545454545454545,-0.24545454545454545,-0.24545454545454545,-0.2363636363636364,-0.25,-0.2545454545454546,-0.2409090909090909,-0.2545454545454546,-0.24545454545454545,-0.2409090909090909,-0.24545454545454545,-0.25,-0.25,-0.2409090909090909,-0.2545454545454546,-0.25,-0.25,-0.24545454545454545,-0.2409090909090909,-0.2272727272727273,-0.2318181818181818,-0.2409090909090909,-0.2318181818181818,-0.2272727272727273,-0.21818181818181812,-0.2136363636363636,-0.2,-0.18636363636363634,-0.18181818181818185,-0.1636363636363636,-0.15,-0.15454545454545454,-0.13636363636363635,-0.14545454545454545,-0.12272727272727273,-0.1,-0.09545454545454543,-0.0818181818181818,-0.07727272727272727,-0.07272727272727272,-0.06363636363636364,-0.07272727272727272,-0.07272727272727272,-0.06363636363636364,-0.045454545454545456,-0.045454545454545456,-0.045454545454545456,-0.03636363636363636,-0.045454545454545456,-0.03636363636363636,-0.03181818181818182,-0.0409090909090909,-0.0409090909090909,-0.045454545454545456,-0.054545454545454536,-0.054545454545454536,-0.054545454545454536,-0.06818181818181818,-0.07272727272727272,-0.0818181818181818,-0.05909090909090909,-0.05909090909090909,-0.07272727272727272,-0.07727272727272727,-0.0818181818181818,-0.06818181818181818,-0.07727272727272727,-0.06818181818181818,-0.08636363636363635,-0.07272727272727272,-0.07272727272727272,-0.0818181818181818,-0.07272727272727272,-0.07727272727272727,-0.08636363636363635,-0.08636363636363635,-0.0818181818181818,-0.09090909090909093,-0.09545454545454543,-0.09090909090909093,-0.1,-0.0818181818181818,-0.07727272727272727,-0.08636363636363635,-0.07727272727272727,-0.07727272727272727,-0.08636363636363635,-0.06818181818181818,-0.0818181818181818,-0.07727272727272727,-0.07727272727272727,-0.05909090909090909,-0.06363636363636364,-0.05,-0.05909090909090909,-0.05,-0.045454545454545456,-0.0409090909090909,-0.03636363636363636,-0.027272727272727268,-0.027272727272727268,-0.03636363636363636,-0.027272727272727268,-0.03181818181818182,-0.00909090909090909,0.03181818181818182,0.1409090909090909,0.3181818181818181,0.4909090909090909,0.6499999999999999,0.7545454545454544,0.7545454545454544,0.5409090909090909,0.2,-0.2636363636363636,-0.6272727272727272,-0.7272727272727273,-0.6681818181818181,-0.5499999999999999,-0.4136363636363637,-0.2909090909090909,-0.22272727272727272,-0.22272727272727272,-0.20454545454545453,-0.20909090909090908,-0.2,-0.22272727272727272,-0.2,-0.2136363636363636,-0.2136363636363636,-0.21818181818181812,-0.2136363636363636,-0.21818181818181812,-0.2272727272727273,-0.2136363636363636,-0.2136363636363636,-0.20909090909090908,-0.22272727272727272,-0.22272727272727272,-0.20909090909090908,-0.20909090909090908,-0.19545454545454544,-0.2,-0.20909090909090908,-0.21818181818181812,-0.21818181818181812,-0.21818181818181812,-0.2136363636363636,-0.21818181818181812,-0.22272727272727272,-0.2318181818181818,-0.20909090909090908,-0.21818181818181812,-0.2363636363636364,-0.2363636363636364,-0.22272727272727272,-0.21818181818181812,-0.2136363636363636,-0.22272727272727272,-0.22272727272727272,-0.2272727272727273,-0.2136363636363636,-0.22272727272727272,-0.22272727272727272,-0.20909090909090908,-0.21818181818181812,-0.18636363636363634,-0.19545454545454544,-0.18636363636363634,-0.1727272727272727,-0.16818181818181815,0.0,0.0,0.0,0.0,0.0,0.0,0.0,0.0,0.0,0.0,0.0,0.0,0.0,0.0,0.0,0.0,0.0,0.0,0.0,0.0,0.0,0.0,0.0,0.0,0.0,0.0,0.0,0.0,0.0,0.0,0.0,0.0,0.0,0.0,0.0,0.0,0.0,0.0,0.0,0.0,0.0,0.0,0.0,0.0,0.0,0.0,0.0,0.0,0.0,0.0,0.0,0.0,0.0,0.0,0.0,0.0,0.0,0.0,0.0,0.0,0.0,0.0,0.0,0.0,0.0,0.0,0.0,0.0,0.0,0.0,0.0,0.0,0.0,0.0,0.0,0.0,0.0,0.0,0.0,0.0,0.0,0.0,0.0,0.0,0.0,0.0,0.0,0.0,0.0,0.0,0.0,0.0,0.0,0.0,0.0,0.0,0.0,0.0,0
-0.1907216494845361,-0.15463917525773194,-0.1443298969072165,-0.16494845360824742,-0.1443298969072165,-0.1597938144329897,-0.13917525773195874,-0.13917525773195874,-0.13402061855670105,-0.11855670103092784,-0.1134020618556701,-0.1443298969072165,-0.15463917525773194,-0.15463917525773194,-0.1752577319587629,-0.1855670103092784,-0.2061855670103093,-0.1855670103092784,-0.1752577319587629,-0.20103092783505155,-0.1855670103092784,-0.1855670103092784,-0.18041237113402064,-0.17010309278350516,-0.1597938144329897,-0.14948453608247422,-0.1443298969072165,-0.1443298969072165,-0.1443298969072165,-0.13402061855670105,-0.14948453608247422,-0.1443298969072165,-0.1443298969072165,-0.13402061855670105,-0.1288659793814433,-0.1134020618556701,-0.12371134020618554,-0.13402061855670105,-0.1443298969072165,-0.1443298969072165,-0.1443298969072165,-0.1443298969072165,-0.1443298969072165,-0.14948453608247422,-0.16494845360824742,-0.18041237113402064,-0.16494845360824742,-0.16494845360824742,-0.1855670103092784,-0.1855670103092784,-0.18041237113402064,-0.18041237113402064,-0.2061855670103093,-0.22164948453608246,-0.21649484536082475,-0.1958762886597938,-0.2061855670103093,-0.2061855670103093,-0.1907216494845361,-0.20103092783505155,-0.2061855670103093,-0.21649484536082475,-0.2371134020618557,-0.23195876288659795,-0.2422680412371134,-0.2061855670103093,-0.10309278350515463,0.10309278350515463,0.3350515463917526,0.5515463917525774,0.7268041237113402,0.7525773195876289,0.5876288659793814,0.21134020618556698,-0.27835051546391754,-0.6134020618556701,-0.7113402061855669,-0.6752577319587629,-0.5927835051546392,-0.4793814432989691,-0.4020618556701031,-0.3505154639175258,-0.3402061855670103,-0.3350515463917526,-0.32989690721649484,-0.32989690721649484,-0.3247422680412371,-0.3195876288659794,-0.3195876288659794,-0.3195876288659794,-0.30412371134020616,-0.2938144329896907,-0.288659793814433,-0.31443298969072164,-0.31443298969072164,-0.288659793814433,-0.27835051546391754,-0.30927835051546393,-0.30412371134020616,-0.30412371134020616,-0.30412371134020616,-0.29896907216494845,-0.288659793814433,-0.2938144329896907,-0.288659793814433,-0.2938144329896907,-0.2938144329896907,-0.288659793814433,-0.2938144329896907,-0.29896907216494845,-0.29896907216494845,-0.2835051546391753,-0.26288659793814434,-0.24742268041237114,-0.24742268041237114,-0.23195876288659795,-0.2268041237113402,-0.22164948453608246,-0.22164948453608246,-0.21134020618556698,-0.18041237113402064,-0.15463917525773194,-0.16494845360824742,-0.18041237113402064,-0.16494845360824742,-0.13917525773195874,-0.13917525773195874,-0.13917525773195874,-0.1134020618556701,-0.09278350515463918,-0.11855670103092784,-0.11855670103092784,-0.12371134020618554,-0.15463917525773194,-0.1752577319587629,-0.15463917525773194,-0.1597938144329897,-0.1752577319587629,-0.1855670103092784,-0.2061855670103093,-0.2061855670103093,-0.1958762886597938,-0.1958762886597938,-0.1958762886597938,-0.1907216494845361,-0.1855670103092784,-0.1907216494845361,-0.1907216494845361,-0.18041237113402064,-0.20103092783505155,-0.21134020618556698,-0.21134020618556698,0.0,0.0,0.0,0.0,0.0,0.0,0.0,0.0,0.0,0.0,0.0,0.0,0.0,0.0,0.0,0.0,0.0,0.0,0.0,0.0,0.0,0.0,0.0,0.0,0.0,0.0,0.0,0.0,0.0,0.0,0.0,0.0,0.0,0.0,0.0,0.0,0.0,0.0,0.0,0.0,0.0,0.0,0.0,0.0,0.0,0.0,0.0,0.0,0.0,0.0,0.0,0.0,0.0,0.0,0.0,0.0,0.0,0.0,0.0,0.0,0.0,0.0,0.0,0.0,0.0,0.0,0.0,0.0,0.0,0.0,0.0,0.0,0.0,0.0,0.0,0.0,0.0,0.0,0.0,0.0,0.0,0.0,0.0,0.0,0.0,0.0,0.0,0.0,0.0,0.0,0.0,0.0,0.0,0.0,0.0,0.0,0.0,0.0,0.0,0.0,0.0,0.0,0.0,0.0,0.0,0.0,0.0,0.0,0.0,0.0,0.0,0.0,0.0,0.0,0.0,0.0,0.0,0.0,0.0,0.0,0.0,0.0,0.0,0.0,0.0,0.0,0.0,0.0,0.0,0.0,0.0,0.0,0.0,0.0,0.0,0.0,0.0,0.0,0.0,0.0,0.0,0.0,0.0,0.0,0.0,0.0,0.0,0.0,0
0.04,0.24,0.4533333333333334,0.6466666666666666,0.7666666666666666,0.8266666666666667,0.7133333333333334,0.4066666666666667,-0.02,-0.4866666666666666,-0.7533333333333333,-0.7999999999999999,-0.7133333333333334,-0.5733333333333334,-0.4066666666666667,-0.28,-0.2,-0.18000000000000002,-0.2,-0.2,-0.21333333333333332,-0.18666666666666668,-0.2333333333333333,-0.20666666666666667,-0.19333333333333333,-0.2,-0.2,-0.21333333333333332,-0.20666666666666667,-0.20666666666666667,-0.21333333333333332,-0.20666666666666667,-0.19333333333333333,-0.19333333333333333,-0.21333333333333332,-0.21333333333333332,-0.2,-0.19333333333333333,-0.18666666666666668,-0.18666666666666668,-0.19333333333333333,-0.18666666666666668,-0.18666666666666668,-0.18000000000000002,-0.18000000000000002,-0.16666666666666666,-0.17333333333333334,-0.18000000000000002,-0.17333333333333334,-0.13333333333333333,-0.14,-0.14666666666666667,-0.15333333333333335,-0.12,-0.13333333333333333,-0.10666666666666667,-0.12666666666666668,-0.12666666666666668,-0.14,-0.12,-0.12,-0.09333333333333334,-0.09333333333333334,-0.09333333333333334,-0.06666666666666668,-0.05333333333333334,-0.02666666666666667,-0.02666666666666667,-0.013333333333333334,-0.04666666666666667,-0.02666666666666667,-0.04,-0.04,-0.04,-0.03333333333333333,-0.013333333333333334,-0.013333333333333334,-0.03333333333333333,-0.03333333333333333,-0.03333333333333333,-0.04666666666666667,-0.06666666666666668,-0.06666666666666668,-0.08,-0.08666666666666667,-0.1,-0.09333333333333334,-0.10666666666666667,-0.12,-0.14666666666666667,-0.11333333333333336,-0.11333333333333336,-0.10666666666666667,-0.10666666666666667,-0.10666666666666667,-0.10666666666666667,-0.09333333333333334,-0.09333333333333334,-0.09333333333333334,-0.09333333333333334,-0.08,-0.08,-0.08666666666666667,-0.11333333333333336,-0.1,-0.10666666666666667,-0.08,-0.09333333333333334,-0.08666666666666667,-0.08,-0.08,-0.1,-0.08666666666666667,-0.09333333333333334,-0.08666666666666667,-0.08666666666666667,-0.09333333333333334,-0.1,-0.10666666666666667,-0.1,-0.10666666666666667,-0.11333333333333336,-0.11333333333333336,-0.12,-0.10666666666666667,-0.11333333333333336,-0.12,-0.10666666666666667,-0.10666666666666667,-0.10666666666666667,-0.12666666666666668,-0.12666666666666668,-0.12666666666666668,-0.11333333333333336,-0.12,-0.12,-0.12666666666666668,-0.13333333333333333,-0.10666666666666667,-0.11333333333333336,-0.13333333333333333,-0.13333333333333333,-0.12,-0.09333333333333334,-0.12666666666666668,-0.12,-0.11333333333333336,-0.13333333333333333,-0.1,-0.10666666666666667,-0.11333333333333336,-0.12,-0.12,-0.12,-0.12666666666666668,-0.12666666666666668,-0.14,-0.10666666666666667,-0.12,-0.12,-0.12,-0.12,-0.11333333333333336,-0.08666666666666667,-0.10666666666666667,-0.10666666666666667,-0.12,-0.10666666666666667,-0.10666666666666667,-0.1,-0.10666666666666667,-0.08,-0.09333333333333334,-0.11333333333333336,-0.08666666666666667,-0.11333333333333336,-0.1,-0.08666666666666667,-0.07333333333333332,-0.1,-0.08666666666666667,-0.06,-0.08666666666666667,-0.12,-0.13333333333333333,-0.12,-0.10666666666666667,-0.1,-0.10666666666666667,-0.12,-0.12666666666666668,-0.12,-0.12,-0.12666666666666668,-0.12,-0.14,-0.12,-0.12666666666666668,-0.14,-0.14666666666666667,-0.16,-0.15333333333333335,-0.12,-0.12666666666666668,-0.14,-0.12,-0.10666666666666667,-0.12666666666666668,-0.12,-0.14,-0.14,-0.12,-0.13333333333333333,-0.15333333333333335,-0.14666666666666667,-0.12666666666666668,-0.12,-0.12666666666666668,-0.11333333333333336,-0.10666666666666667,-0.12666666666666668,-0.10666666666666667,-0.10666666666666667,-0.10666666666666667,-0.09333333333333334,-0.10666666666666667,0.0,0.0,0.0,0.0,0.0,0.0,0.0,0.0,0.0,0.0,0.0,0.0,0.0,0.0,0.0,0.0,0.0,0.0,0.0,0.0,0.0,0.0,0.0,0.0,0.0,0.0,0.0,0.0,0.0,0.0,0.0,0.0,0.0,0.0,0.0,0.0,0.0,0.0,0.0,0.0,0.0,0.0,0.0,0.0,0.0,0.0,0.0,0.0,0.0,0.0,0.0,0.0,0.0,0.0,0.0,0.0,0.0,0.0,0.0,0.0,0.0,0.0,0.0,0.0,0.0,0.0,0.0,0.0,0.0,0.0,0.0,0.0,0.0,0.0,0
0.8761467889908255,0.7614678899082568,0.3532110091743119,-0.0963302752293578,-0.3623853211009174,-0.426605504587156,-0.4128440366972477,-0.3440366972477064,-0.2889908256880734,-0.2477064220183486,-0.21559633027522931,-0.2201834862385321,-0.19724770642201836,-0.17431192660550454,-0.17889908256880732,-0.20183486238532108,-0.2110091743119266,-0.2201834862385321,-0.2293577981651376,-0.23394495412844035,-0.24311926605504586,-0.2568807339449541,-0.2798165137614679,-0.2706422018348624,-0.2798165137614679,-0.2614678899082568,-0.2568807339449541,-0.2798165137614679,-0.3027522935779817,-0.2660550458715596,-0.2614678899082568,-0.2477064220183486,-0.2385321100917431,-0.1926605504587156,-0.19724770642201836,-0.18807339449541285,-0.16513761467889904,-0.17431192660550454,-0.18807339449541285,-0.20183486238532108,-0.1834862385321101,-0.17431192660550454,-0.15137614678899086,-0.1422018348623853,-0.12844036697247707,-0.17431192660550454,-0.2293577981651376,-0.21559633027522931,-0.17431192660550454,-0.1238532110091743,-0.11009174311926603,-0.11926605504587155,-0.11009174311926603,-0.08715596330275227,-0.08256880733944952,-0.09174311926605504,-0.06880733944954127,-0.022935779816513763,0.0045871559633027525,0.0,-0.0045871559633027525,-0.01834862385321101,-0.009174311926605505,-0.022935779816513763,-0.013761467889908256,0.0,0.0,-0.027522935779816512,-0.009174311926605505,0.0,-0.013761467889908256,-0.022935779816513763,-0.041284403669724766,-0.022935779816513763,-0.027522935779816512,-0.07339449541284403,-0.0963302752293578,-0.07339449541284403,-0.0779816513761468,-0.11926605504587155,-0.11926605504587155,-0.1055045871559633,-0.09174311926605504,-0.09174311926605504,-0.12844036697247707,-0.1330275229357798,-0.1238532110091743,-0.15137614678899086,-0.17889908256880732,-0.16972477064220182,-0.16513761467889904,-0.1834862385321101,-0.17431192660550454,-0.14678899082568805,-0.15137614678899086,-0.1834862385321101,-0.1926605504587156,-0.1559633027522936,-0.13761467889908255,-0.1330275229357798,-0.1238532110091743,-0.0963302752293578,-0.10091743119266054,-0.1055045871559633,-0.1146788990825688,-0.09174311926605504,-0.059633027522935776,-0.05045871559633027,-0.07339449541284403,-0.09174311926605504,-0.06422018348623854,-0.06422018348623854,-0.08715596330275227,-0.0779816513761468,-0.07339449541284403,-0.08256880733944952,-0.06880733944954127,-0.06880733944954127,-0.06880733944954127,-0.07339449541284403,-0.0963302752293578,-0.08715596330275227,-0.055045871559633024,-0.06422018348623854,-0.0779816513761468,-0.07339449541284403,-0.05045871559633027,-0.041284403669724766,-0.07339449541284403,-0.09174311926605504,-0.07339449541284403,-0.05045871559633027,0.041284403669724766,0.20642201834862384,0.4128440366972477,0.6238532110091743,0.8165137614678899,0.9541284403669724,0.9357798165137614,0.7018348623853211,0.2477064220183486,-0.21559633027522931,-0.4311926605504587,-0.4770642201834862,-0.4449541284403669,-0.3807339449541284,-0.2660550458715596,-0.1834862385321101,-0.15137614678899086,-0.16972477064220182,-0.1834862385321101,-0.20642201834862384,-0.2201834862385321,-0.2385321100917431,-0.2201834862385321,-0.1926605504587156,-0.20642201834862384,-0.23394495412844035,-0.2293577981651376,-0.2293577981651376,-0.23394495412844035,-0.2706422018348624,-0.2706422018348624,-0.2477064220183486,-0.23394495412844035,0.0,0.0,0.0,0.0,0.0,0.0,0.0,0.0,0.0,0.0,0.0,0.0,0.0,0.0,0.0,0.0,0.0,0.0,0.0,0.0,0.0,0.0,0.0,0.0,0.0,0.0,0.0,0.0,0.0,0.0,0.0,0.0,0.0,0.0,0.0,0.0,0.0,0.0,0.0,0.0,0.0,0.0,0.0,0.0,0.0,0.0,0.0,0.0,0.0,0.0,0.0,0.0,0.0,0.0,0.0,0.0,0.0,0.0,0.0,0.0,0.0,0.0,0.0,0.0,0.0,0.0,0.0,0.0,0.0,0.0,0.0,0.0,0.0,0.0,0.0,0.0,0.0,0.0,0.0,0.0,0.0,0.0,0.0,0.0,0.0,0.0,0.0,0.0,0.0,0.0,0.0,0.0,0.0,0.0,0.0,0.0,0.0,0.0,0.0,0.0,0.0,0.0,0.0,0.0,0.0,0.0,0.0,0.0,0.0,0.0,0.0,0.0,0.0,0.0,0.0,0.0,0.0,0.0,0.0,0.0,0.0,0.0,0.0,0.0,0.0,0.0,0.0,0.0,0.0,0.0,0.0,0.0,0.0,0.0,0.0,0
0.15765765765765766,0.35585585585585583,0.5675675675675675,0.7477477477477477,0.8963963963963963,0.7162162162162162,0.3603603603603603,-0.058558558558558564,-0.3963963963963963,-0.5090090090090089,-0.5045045045045045,-0.4549549549549549,-0.33783783783783783,-0.2162162162162162,-0.13513513513513511,-0.09909909909909907,-0.07207207207207207,-0.07657657657657657,-0.07207207207207207,-0.08108108108108107,-0.08558558558558559,-0.08558558558558559,-0.1036036036036036,-0.0945945945945946,-0.1036036036036036,-0.1126126126126126,-0.09909909909909907,-0.11711711711711713,-0.13963963963963966,-0.15315315315315314,-0.15315315315315314,-0.14414414414414414,-0.15315315315315314,-0.16666666666666666,-0.17117117117117114,-0.17567567567567566,-0.17567567567567566,-0.18018018018018014,-0.19819819819819814,-0.19819819819819814,-0.18018018018018014,-0.1891891891891892,-0.18468468468468466,-0.19369369369369369,-0.2027027027027027,-0.19369369369369369,-0.1891891891891892,-0.18018018018018014,-0.18468468468468466,-0.1891891891891892,-0.18468468468468466,-0.18468468468468466,-0.19819819819819814,-0.2027027027027027,-0.2252252252252252,-0.2117117117117117,-0.19819819819819814,-0.19369369369369369,-0.19819819819819814,-0.19369369369369369,-0.19369369369369369,-0.1891891891891892,-0.16666666666666666,-0.14864864864864866,-0.14414414414414414,-0.1306306306306306,-0.1306306306306306,-0.12612612612612611,-0.11711711711711713,-0.1081081081081081,-0.0945945945945946,-0.07657657657657657,-0.05405405405405405,-0.045045045045045036,-0.03153153153153153,-0.022522522522522518,-0.009009009009009007,0.009009009009009007,0.013513513513513513,0.040540540540540536,0.045045045045045036,0.049549549549549536,0.058558558558558564,0.07207207207207207,0.07207207207207207,0.07207207207207207,0.06756756756756756,0.058558558558558564,0.058558558558558564,0.045045045045045036,0.0045045045045045045,0.0,-0.0045045045045045045,-0.03153153153153153,-0.027027027027027025,-0.049549549549549536,-0.05405405405405405,-0.06756756756756756,-0.058558558558558564,-0.06306306306306306,-0.06756756756756756,-0.08108108108108107,-0.07657657657657657,-0.08558558558558559,-0.08558558558558559,-0.06756756756756756,-0.07207207207207207,-0.0945945945945946,-0.0945945945945946,-0.07657657657657657,-0.06756756756756756,-0.08108108108108107,-0.08108108108108107,-0.06306306306306306,-0.049549549549549536,-0.058558558558558564,-0.06306306306306306,-0.06756756756756756,-0.05405405405405405,-0.06756756756756756,-0.07207207207207207,-0.06756756756756756,-0.049549549549549536,-0.049549549549549536,-0.049549549549549536,-0.049549549549549536,-0.049549549549549536,-0.045045045045045036,-0.036036036036036036,-0.040540540540540536,-0.03153153153153153,-0.036036036036036036,-0.036036036036036036,-0.045045045045045036,-0.040540540540540536,-0.036036036036036036,-0.03153153153153153,-0.05405405405405405,-0.049549549549549536,-0.036036036036036036,-0.027027027027027025,-0.03153153153153153,-0.018018018018018014,-0.018018018018018014,-0.022522522522522518,-0.013513513513513513,0.0,0.0045045045045045045,0.0045045045045045045,0.0,0.0,0.0,0.0,-0.0045045045045045045,-0.022522522522522518,-0.022522522522522518,-0.03153153153153153,-0.040540540540540536,-0.049549549549549536,-0.06306306306306306,-0.07657657657657657,-0.058558558558558564,-0.058558558558558564,-0.07207207207207207,-0.08558558558558559,-0.08108108108108107,-0.08558558558558559,-0.08108108108108107,-0.08558558558558559,-0.08558558558558559,-0.08558558558558559,-0.09909909909909907,-0.09909909909909907,-0.1126126126126126,-0.0945945945945946,-0.1036036036036036,-0.09009009009009007,-0.0945945945945946,-0.0945945945945946,-0.09909909909909907,-0.0945945945945946,-0.1081081081081081,-0.09909909909909907,-0.09909909909909907,-0.1036036036036036,-0.1081081081081081,-0.09909909909909907,-0.09009009009009007,-0.1126126126126126,-0.1081081081081081,-0.1081081081081081,-0.0945945945945946,-0.09909909909909907,-0.09009009009009007,-0.0945945945945946,-0.1036036036036036,-0.09009009009009007,-0.08108108108108107,-0.08558558558558559,-0.07207207207207207,-0.07657657657657657,-0.06306306306306306,-0.07657657657657657,-0.06756756756756756,-0.06306306306306306,-0.06306306306306306,-0.049549549549549536,-0.05405405405405405,-0.045045045045045036,-0.036036036036036036,-0.03153153153153153,-0.027027027027027025,-0.036036036036036036,-0.018018018018018014,-0.03153153153153153,-0.013513513513513513,-0.018018018018018014,-0.022522522522522518,-0.036036036036036036,-0.045045045045045036,-0.040540540540540536,-0.05405405405405405,-0.07207207207207207,-0.07657657657657657,-0.08558558558558559,-0.08108108108108107,-0.0945945945945946,-0.0945945945945946,-0.08108108108108107,-0.09909909909909907,-0.1036036036036036,-0.09009009009009007,-0.1036036036036036,-0.1126126126126126,-0.1126126126126126,-0.1081081081081081,-0.1126126126126126,-0.1216216216216216,-0.1036036036036036,-0.09909909909909907,-0.1081081081081081,-0.1036036036036036,-0.1036036036036036,-0.08558558558558559,-0.08108108108108107,-0.09009009009009007,-0.08108108108108107,-0.0945945945945946,-0.0945945945945946,-0.0945945945945946,-0.07207207207207207,-0.036036036036036036,0.05405405405405405,0.2252252252252252,0.4414414414414414,0.6396396396396395,0.7972972972972973,0.9009009009009008,0.8333333333333333,0.545045045045045,0.16216216216216214,-0.2072072072072072,-0.4054054054054054,-0.472972972972973,-0.4549549549549549,-0.3738738738738738,-0.2567567567567567,-0.19369369369369369,-0.15315315315315314,-0.12612612612612611,-0.1216216216216216,0.0,0.0,0.0,0.0,0.0,0.0,0.0,0.0,0.0,0.0,0.0,0.0,0.0,0.0,0.0,0.0,0.0,0.0,0.0,0.0,0.0,0.0,0.0,0.0,0.0,0.0,0.0,0.0,0.0,0
0.8676470588235294,0.5784313725490196,0.1176470588235294,-0.2892156862745098,-0.4656862745098039,-0.4852941176470588,-0.4264705882352941,-0.3529411764705882,-0.2696078431372549,-0.22549019607843135,-0.2303921568627451,-0.22058823529411764,-0.19607843137254904,-0.1862745098039216,-0.1764705882352941,-0.16176470588235295,-0.15196078431372548,-0.16666666666666669,-0.1764705882352941,-0.14705882352941174,-0.12745098039215685,-0.11274509803921567,-0.12745098039215685,-0.1323529411764706,-0.13725490196078433,-0.14705882352941174,-0.1568627450980392,-0.14215686274509806,-0.14215686274509806,-0.14215686274509806,-0.14705882352941174,-0.12745098039215685,-0.14215686274509806,-0.15196078431372548,-0.18137254901960784,-0.16666666666666669,-0.14215686274509806,-0.12745098039215685,-0.13725490196078433,-0.1323529411764706,-0.10294117647058824,-0.10784313725490197,-0.11274509803921567,-0.08333333333333334,-0.09803921568627452,-0.0784313725490196,-0.06862745098039216,-0.05392156862745098,-0.05882352941176471,-0.044117647058823525,-0.05882352941176471,-0.05392156862745098,-0.014705882352941175,-0.00980392156862745,-0.0196078431372549,-0.004901960784313725,0.014705882352941175,0.0,-0.00980392156862745,-0.0196078431372549,0.004901960784313725,-0.014705882352941175,-0.05882352941176471,-0.05392156862745098,-0.05392156862745098,-0.04901960784313725,-0.06372549019607843,-0.05392156862745098,-0.044117647058823525,-0.03431372549019608,-0.0392156862745098,-0.04901960784313725,-0.03431372549019608,-0.03431372549019608,-0.05392156862745098,-0.07352941176470587,-0.044117647058823525,-0.029411764705882356,-0.044117647058823525,-0.03431372549019608,-0.0196078431372549,-0.014705882352941175,-0.024509803921568627,-0.0392156862745098,-0.0196078431372549,-0.004901960784313725,-0.014705882352941175,-0.03431372549019608,-0.029411764705882356,-0.00980392156862745,-0.0196078431372549,-0.03431372549019608,-0.05392156862745098,-0.024509803921568627,-0.04901960784313725,-0.05392156862745098,-0.06862745098039216,-0.0392156862745098,-0.05392156862745098,-0.0784313725490196,-0.0784313725490196,-0.0784313725490196,-0.06862745098039216,-0.08333333333333334,-0.0931372549019608,-0.09803921568627452,-0.10784313725490197,-0.12254901960784312,-0.1176470588235294,-0.09803921568627452,-0.10784313725490197,-0.12745098039215685,-0.12745098039215685,-0.1176470588235294,-0.12254901960784312,-0.1323529411764706,-0.12745098039215685,-0.10784313725490197,-0.12254901960784312,-0.15196078431372548,-0.16666666666666669,-0.16666666666666669,-0.17156862745098034,-0.1911764705882353,-0.20098039215686272,-0.17156862745098034,-0.06862745098039216,0.06862745098039216,0.29411764705882354,0.5294117647058824,0.7549019607843137,0.9117647058823528,0.9362745098039216,0.7303921568627451,0.3284313725490196,-0.1568627450980392,-0.4362745098039216,-0.4852941176470588,-0.4362745098039216,-0.3774509803921569,-0.30392156862745096,-0.2303921568627451,-0.18137254901960784,-0.16666666666666669,-0.1862745098039216,-0.20098039215686272,-0.1764705882352941,-0.1862745098039216,-0.20098039215686272,-0.22058823529411764,-0.19607843137254904,-0.1911764705882353,-0.20098039215686272,-0.19607843137254904,-0.1862745098039216,-0.1862745098039216,-0.20098039215686272,-0.22058823529411764,-0.20098039215686272,-0.22549019607843135,-0.24509803921568624,-0.2352941176470588,-0.2058823529411765,-0.21568627450980396,-0.2352941176470588,-0.2598039215686275,-0.22058823529411764,-0.21568627450980396,-0.24509803921568624,-0.2352941176470588,-0.20098039215686272,-0.1911764705882353,-0.20098039215686272,-0.18137254901960784,-0.16176470588235295,-0.14215686274509806,-0.14215686274509806,-0.17156862745098034,-0.17156862745098034,-0.1568627450980392,-0.1568627450980392,-0.16666666666666669,-0.14215686274509806,-0.12254901960784312,-0.12745098039215685,-0.14705882352941174,-0.10784313725490197,-0.0784313725490196,-0.07352941176470587,-0.05882352941176471,-0.0196078431372549,0.00980392156862745,0.029411764705882356,0.004901960784313725,0.024509803921568627,0.03431372549019608,0.0196078431372549,0.00980392156862745,0.024509803921568627,0.0392156862745098,0.014705882352941175,-0.0196078431372549,-0.00980392156862745,-0.004901960784313725,-0.00980392156862745,-0.03431372549019608,-0.05882352941176471,-0.0392156862745098,-0.03431372549019608,-0.05882352941176471,-0.05882352941176471,-0.06862745098039216,-0.04901960784313725,-0.05882352941176471,-0.06372549019607843,-0.06372549019607843,-0.06372549019607843,-0.07352941176470587,-0.10784313725490197,-0.11274509803921567,-0.09803921568627452,-0.09803921568627452,-0.12254901960784312,-0.11274509803921567,-0.11274509803921567,-0.13725490196078433,-0.14215686274509806,-0.14215686274509806,-0.12745098039215685,-0.1176470588235294,-0.13725490196078433,-0.14705882352941174,-0.11274509803921567,-0.12745098039215685,-0.14705882352941174,-0.14215686274509806,-0.14705882352941174,-0.1323529411764706,-0.14215686274509806,-0.1568627450980392,-0.13725490196078433,-0.1568627450980392,-0.1764705882352941,-0.1911764705882353,-0.18137254901960784,-0.1911764705882353,-0.2107843137254902,-0.22058823529411764,-0.2058823529411765,-0.2107843137254902,-0.21568627450980396,-0.21568627450980396,-0.1911764705882353,-0.19607843137254904,-0.1568627450980392,-0.14705882352941174,-0.12745098039215685,-0.1323529411764706,-0.12745098039215685,-0.14705882352941174,-0.12254901960784312,-0.10784313725490197,-0.08823529411764705,-0.0931372549019608,-0.10294117647058824,0.0,0.0,0.0,0.0,0.0,0.0,0.0,0.0,0.0,0.0,0.0,0.0,0.0,0.0,0.0,0.0,0.0,0.0,0.0,0.0,0.0,0.0,0.0,0.0,0.0,0.0,0.0,0.0,0.0,0.0,0.0,0.0,0.0,0.0,0.0,0
-0.054545454545454536,0.0818181818181818,0.25,0.4636363636363636,0.6545454545454544,0.8136363636363636,0.85,0.6954545454545454,0.36818181818181817,-0.05,-0.4363636363636363,-0.6227272727272727,-0.6545454545454544,-0.6090909090909091,-0.5136363636363636,-0.3909090909090909,-0.3363636363636363,-0.2818181818181818,-0.25909090909090904,-0.25909090909090904,-0.25909090909090904,-0.2636363636363636,-0.25909090909090904,-0.2545454545454546,-0.25909090909090904,-0.25909090909090904,-0.25909090909090904,-0.2636363636363636,-0.25909090909090904,-0.25909090909090904,-0.25909090909090904,-0.2545454545454546,-0.25909090909090904,-0.25909090909090904,-0.24545454545454545,-0.25,-0.2545454545454546,-0.2363636363636364,-0.2318181818181818,-0.2545454545454546,-0.2363636363636364,-0.24545454545454545,-0.2363636363636364,-0.25909090909090904,-0.2545454545454546,-0.25,-0.2363636363636364,-0.24545454545454545,-0.2409090909090909,-0.24545454545454545,-0.25,-0.2545454545454546,-0.2363636363636364,-0.2545454545454546,-0.25,-0.2409090909090909,-0.2363636363636364,-0.2272727272727273,-0.2272727272727273,-0.2318181818181818,-0.22272727272727272,-0.2272727272727273,-0.21818181818181812,-0.21818181818181812,-0.20909090909090908,-0.2,-0.17727272727272728,-0.1636363636363636,-0.15909090909090906,-0.15454545454545454,-0.1409090909090909,-0.11818181818181818,-0.10909090909090907,-0.09545454545454543,-0.08636363636363635,-0.08636363636363635,-0.07727272727272727,-0.09090909090909093,-0.07727272727272727,-0.08636363636363635,-0.10454545454545454,-0.09090909090909093,-0.10454545454545454,-0.09090909090909093,-0.10454545454545454,-0.10909090909090907,-0.11363636363636365,-0.11363636363636365,-0.1318181818181818,-0.12272727272727273,-0.14545454545454545,-0.14545454545454545,-0.15,-0.14545454545454545,-0.15454545454545454,-0.15909090909090906,-0.14545454545454545,-0.15909090909090906,-0.15454545454545454,-0.15454545454545454,-0.15454545454545454,-0.15909090909090906,-0.15909090909090906,-0.15909090909090906,-0.15,-0.15909090909090906,-0.15454545454545454,-0.13636363636363635,-0.13636363636363635,-0.13636363636363635,-0.1409090909090909,-0.14545454545454545,-0.13636363636363635,-0.13636363636363635,-0.13636363636363635,-0.15,-0.14545454545454545,-0.14545454545454545,-0.13636363636363635,-0.13636363636363635,-0.12272727272727273,-0.1272727272727273,-0.1272727272727273,-0.1272727272727273,-0.1318181818181818,-0.1272727272727273,-0.12272727272727273,-0.1272727272727273,-0.11818181818181818,-0.11818181818181818,-0.11818181818181818,-0.11363636363636365,-0.1272727272727273,-0.10454545454545454,-0.09545454545454543,-0.1,-0.09545454545454543,-0.09090909090909093,-0.09545454545454543,-0.08636363636363635,-0.0818181818181818,-0.08636363636363635,-0.09090909090909093,-0.09090909090909093,-0.10909090909090907,-0.1,-0.11363636363636365,-0.1318181818181818,-0.15,-0.15454545454545454,-0.16818181818181815,-0.1727272727272727,-0.19545454545454544,-0.18636363636363634,-0.1909090909090909,-0.2,-0.20909090909090908,-0.18636363636363634,-0.2136363636363636,-0.2,-0.20454545454545453,-0.1909090909090909,-0.19545454545454544,-0.2,-0.2,-0.20454545454545453,-0.2,-0.20454545454545453,-0.20909090909090908,-0.22272727272727272,-0.2136363636363636,-0.20454545454545453,-0.20454545454545453,-0.2136363636363636,-0.21818181818181812,-0.20909090909090908,-0.19545454545454544,-0.1909090909090909,-0.1909090909090909,-0.20454545454545453,-0.20454545454545453,-0.1909090909090909,-0.19545454545454544,-0.2,-0.19545454545454544,-0.20454545454545453,-0.2,-0.18636363636363634,-0.2,-0.19545454545454544,-0.2136363636363636,-0.19545454545454544,-0.20454545454545453,-0.1909090909090909,-0.18181818181818185,-0.1727272727272727,-0.1727272727272727,-0.1636363636363636,-0.16818181818181815,-0.1727272727272727,-0.1636363636363636,-0.16818181818181815,0.0,0.0,0.0,0.0,0.0,0.0,0.0,0.0,0.0,0.0,0.0,0.0,0.0,0.0,0.0,0.0,0.0,0.0,0.0,0.0,0.0,0.0,0.0,0.0,0.0,0.0,0.0,0.0,0.0,0.0,0.0,0.0,0.0,0.0,0.0,0.0,0.0,0.0,0.0,0.0,0.0,0.0,0.0,0.0,0.0,0.0,0.0,0.0,0.0,0.0,0.0,0.0,0.0,0.0,0.0,0.0,0.0,0.0,0.0,0.0,0.0,0.0,0.0,0.0,0.0,0.0,0.0,0.0,0.0,0.0,0.0,0.0,0.0,0.0,0.0,0.0,0.0,0.0,0.0,0.0,0.0,0.0,0.0,0.0,0.0,0.0,0.0,0.0,0.0,0.0,0.0,0.0,0.0,0.0,0.0,0.0,0.0,0.0,0
-0.15765765765765766,-0.009009009009009007,0.18018018018018014,0.4189189189189189,0.6306306306306305,0.8468468468468467,0.945945945945946,0.8108108108108107,0.4549549549549549,0.013513513513513513,-0.4054054054054054,-0.6126126126126126,-0.644144144144144,-0.572072072072072,-0.4819819819819819,-0.39189189189189183,-0.34234234234234234,-0.3243243243243243,-0.31081081081081074,-0.3288288288288288,-0.34234234234234234,-0.3288288288288288,-0.3153153153153153,-0.3198198198198198,-0.3288288288288288,-0.35585585585585583,-0.3603603603603603,-0.3603603603603603,-0.3783783783783784,-0.3828828828828829,-0.3603603603603603,-0.35585585585585583,-0.3783783783783784,-0.4009009009009009,-0.3828828828828829,-0.4054054054054054,-0.4189189189189189,-0.4324324324324324,-0.4189189189189189,-0.4099099099099099,-0.4189189189189189,-0.4189189189189189,-0.39189189189189183,-0.38738738738738737,-0.38738738738738737,-0.3738738738738738,-0.35585585585585583,-0.3513513513513513,-0.3738738738738738,-0.3738738738738738,-0.3513513513513513,-0.34234234234234234,-0.3603603603603603,-0.3648648648648649,-0.3603603603603603,-0.3333333333333333,-0.35585585585585583,-0.3468468468468468,-0.3468468468468468,-0.3288288288288288,-0.33783783783783783,-0.33783783783783783,-0.3198198198198198,-0.2792792792792793,-0.27477477477477474,-0.2792792792792793,-0.27027027027027023,-0.2297297297297297,-0.2117117117117117,-0.2207207207207207,-0.19369369369369369,-0.16216216216216214,-0.16216216216216214,-0.16216216216216214,-0.17567567567567566,-0.15315315315315314,-0.16216216216216214,-0.16216216216216214,-0.13513513513513511,-0.1216216216216216,-0.14864864864864866,-0.14864864864864866,-0.16666666666666666,-0.16666666666666666,-0.16666666666666666,-0.1891891891891892,-0.2072072072072072,-0.19369369369369369,-0.19819819819819814,-0.2252252252252252,-0.2252252252252252,-0.2162162162162162,-0.23873873873873874,-0.2477477477477477,-0.24324324324324326,-0.23423423423423426,-0.23873873873873874,-0.24324324324324326,-0.27027027027027023,-0.27477477477477474,-0.28378378378378377,-0.2972972972972973,-0.2882882882882883,-0.2612612612612612,-0.2792792792792793,-0.2927927927927928,-0.3018018018018018,-0.2972972972972973,-0.2972972972972973,-0.3198198198198198,-0.3468468468468468,-0.3288288288288288,-0.3153153153153153,-0.3288288288288288,-0.34234234234234234,-0.3333333333333333,-0.31081081081081074,-0.3243243243243243,-0.3153153153153153,-0.2882882882882883,-0.2477477477477477,-0.25225225225225223,-0.2477477477477477,-0.2657657657657657,-0.25225225225225223,-0.24324324324324326,-0.2612612612612612,-0.2477477477477477,-0.23873873873873874,-0.24324324324324326,-0.2567567567567567,-0.25225225225225223,-0.24324324324324326,-0.2477477477477477,-0.2657657657657657,-0.2567567567567567,-0.2297297297297297,-0.2252252252252252,-0.24324324324324326,-0.2567567567567567,-0.23873873873873874,-0.2297297297297297,-0.23873873873873874,-0.2567567567567567,-0.23423423423423426,-0.2162162162162162,-0.25225225225225223,-0.27027027027027023,-0.27477477477477474,-0.2207207207207207,-0.1216216216216216,0.03153153153153153,0.2567567567567567,0.4819819819819819,0.7117117117117117,0.8423423423423423,0.8018018018018017,0.527027027027027,0.09909909909909907,-0.3513513513513513,-0.5945945945945945,-0.6351351351351351,-0.5855855855855856,-0.5090090090090089,-0.4234234234234234,-0.3603603603603603,-0.3153153153153153,-0.3153153153153153,-0.33783783783783783,-0.3288288288288288,-0.3198198198198198,-0.33783783783783783,-0.3288288288288288,-0.3288288288288288,-0.3333333333333333,-0.3513513513513513,-0.3648648648648649,0.0,0.0,0.0,0.0,0.0,0.0,0.0,0.0,0.0,0.0,0.0,0.0,0.0,0.0,0.0,0.0,0.0,0.0,0.0,0.0,0.0,0.0,0.0,0.0,0.0,0.0,0.0,0.0,0.0,0.0,0.0,0.0,0.0,0.0,0.0,0.0,0.0,0.0,0.0,0.0,0.0,0.0,0.0,0.0,0.0,0.0,0.0,0.0,0.0,0.0,0.0,0.0,0.0,0.0,0.0,0.0,0.0,0.0,0.0,0.0,0.0,0.0,0.0,0.0,0.0,0.0,0.0,0.0,0.0,0.0,0.0,0.0,0.0,0.0,0.0,0.0,0.0,0.0,0.0,0.0,0.0,0.0,0.0,0.0,0.0,0.0,0.0,0.0,0.0,0.0,0.0,0.0,0.0,0.0,0.0,0.0,0.0,0.0,0.0,0.0,0.0,0.0,0.0,0.0,0.0,0.0,0.0,0.0,0.0,0.0,0.0,0.0,0.0,0.0,0.0,0.0,0.0,0.0,0.0,0.0,0.0,0.0,0.0,0
0.14864864864864866,0.34234234234234234,0.563063063063063,0.7432432432432431,0.8693693693693693,0.8828828828828827,0.6801801801801801,0.2972972972972973,-0.12612612612612611,-0.4369369369369369,-0.5225225225225224,-0.5090090090090089,-0.4324324324324324,-0.34234234234234234,-0.23423423423423426,-0.17567567567567566,-0.12612612612612611,-0.12612612612612611,-0.11711711711711713,-0.1081081081081081,-0.09909909909909907,-0.09909909909909907,-0.0945945945945946,-0.09909909909909907,-0.09909909909909907,-0.08558558558558559,-0.08108108108108107,-0.09909909909909907,-0.1081081081081081,-0.1126126126126126,-0.11711711711711713,-0.13963963963963966,-0.1306306306306306,-0.14864864864864866,-0.16216216216216214,-0.15315315315315314,-0.16666666666666666,-0.16666666666666666,-0.17117117117117114,-0.19819819819819814,-0.18018018018018014,-0.18018018018018014,-0.1891891891891892,-0.19369369369369369,-0.19819819819819814,-0.19369369369369369,-0.1891891891891892,-0.18468468468468466,-0.2117117117117117,-0.2072072072072072,-0.2027027027027027,-0.2072072072072072,-0.19819819819819814,-0.2027027027027027,-0.2072072072072072,-0.2072072072072072,-0.2117117117117117,-0.2072072072072072,-0.19819819819819814,-0.2072072072072072,-0.2072072072072072,-0.2117117117117117,-0.2072072072072072,-0.19819819819819814,-0.1891891891891892,-0.18018018018018014,-0.17117117117117114,-0.16666666666666666,-0.15765765765765766,-0.14414414414414414,-0.13513513513513511,-0.12612612612612611,-0.1081081081081081,-0.07657657657657657,-0.07207207207207207,-0.06306306306306306,-0.045045045045045036,-0.03153153153153153,-0.03153153153153153,-0.009009009009009007,-0.013513513513513513,-0.0045045045045045045,0.0,0.022522522522522518,0.027027027027027025,0.03153153153153153,0.027027027027027025,0.036036036036036036,0.036036036036036036,0.058558558558558564,0.049549549549549536,0.040540540540540536,0.03153153153153153,0.036036036036036036,0.045045045045045036,0.009009009009009007,-0.0045045045045045045,-0.018018018018018014,-0.027027027027027025,-0.045045045045045036,-0.049549549549549536,-0.08108108108108107,-0.06756756756756756,-0.07207207207207207,-0.06756756756756756,-0.07657657657657657,-0.06306306306306306,-0.09009009009009007,-0.08558558558558559,-0.08108108108108107,-0.08108108108108107,-0.09009009009009007,-0.08558558558558559,-0.0945945945945946,-0.08558558558558559,-0.0945945945945946,-0.07657657657657657,-0.08108108108108107,-0.09009009009009007,-0.08558558558558559,-0.07207207207207207,-0.07207207207207207,-0.09009009009009007,-0.08108108108108107,-0.08108108108108107,-0.07207207207207207,-0.07207207207207207,-0.08558558558558559,-0.08108108108108107,-0.08108108108108107,-0.09009009009009007,-0.09009009009009007,-0.06306306306306306,-0.06756756756756756,-0.06306306306306306,-0.06756756756756756,-0.05405405405405405,-0.05405405405405405,-0.05405405405405405,-0.07657657657657657,-0.06306306306306306,-0.049549549549549536,-0.05405405405405405,-0.049549549549549536,-0.05405405405405405,-0.06756756756756756,-0.05405405405405405,-0.036036036036036036,-0.05405405405405405,-0.05405405405405405,-0.036036036036036036,-0.027027027027027025,-0.022522522522522518,-0.018018018018018014,-0.013513513513513513,-0.022522522522522518,-0.013513513513513513,-0.0045045045045045045,-0.0045045045045045045,-0.009009009009009007,-0.027027027027027025,-0.036036036036036036,-0.045045045045045036,-0.045045045045045036,-0.06306306306306306,-0.07657657657657657,-0.0945945945945946,-0.0945945945945946,-0.1036036036036036,-0.09009009009009007,-0.09909909909909907,-0.1081081081081081,-0.1036036036036036,-0.1126126126126126,-0.13513513513513511,-0.1036036036036036,-0.12612612612612611,-0.1216216216216216,-0.11711711711711713,-0.1126126126126126,-0.12612612612612611,-0.1216216216216216,-0.13513513513513511,-0.11711711711711713,-0.1081081081081081,-0.11711711711711713,-0.11711711711711713,-0.1216216216216216,-0.12612612612612611,-0.11711711711711713,-0.1081081081081081,-0.11711711711711713,-0.1216216216216216,-0.12612612612612611,-0.12612612612612611,-0.11711711711711713,-0.1216216216216216,-0.1216216216216216,-0.12612612612612611,-0.12612612612612611,-0.11711711711711713,-0.1126126126126126,-0.12612612612612611,-0.11711711711711713,-0.1126126126126126,-0.1036036036036036,-0.1036036036036036,-0.09009009009009007,-0.09009009009009007,-0.06756756756756756,-0.08108108108108107,-0.0945945945945946,-0.08108108108108107,-0.07657657657657657,-0.06306306306306306,-0.058558558558558564,-0.058558558558558564,-0.058558558558558564,-0.05405405405405405,-0.045045045045045036,-0.045045045045045036,-0.036036036036036036,-0.036036036036036036,-0.036036036036036036,-0.040540540540540536,-0.049549549549549536,-0.045045045045045036,-0.07207207207207207,-0.07207207207207207,-0.08558558558558559,-0.09009009009009007,-0.1036036036036036,-0.09909909909909907,-0.1081081081081081,-0.12612612612612611,-0.1216216216216216,-0.1216216216216216,-0.1306306306306306,-0.13963963963963966,-0.13513513513513511,-0.15315315315315314,-0.1306306306306306,-0.13963963963963966,-0.15315315315315314,-0.14414414414414414,-0.13963963963963966,-0.12612612612612611,-0.12612612612612611,-0.1306306306306306,-0.13963963963963966,-0.11711711711711713,-0.1306306306306306,-0.1126126126126126,-0.1216216216216216,-0.1126126126126126,-0.11711711711711713,-0.1216216216216216,-0.14414414414414414,-0.12612612612612611,-0.07207207207207207,0.07207207207207207,0.2567567567567567,0.5,0.7072072072072072,0.9099099099099098,1.0,0.8963963963963963,0.563063063063063,0.12612612612612611,-0.2972972972972973,-0.5090090090090089,0.0,0.0,0.0,0.0,0.0,0.0,0.0,0.0,0.0,0.0,0.0,0.0,0.0,0.0,0.0,0.0,0.0,0.0,0.0,0.0,0.0,0.0,0.0,0.0,0.0,0.0,0.0,0.0,0.0,0
-0.008333333333333333,0.11666666666666667,0.2958333333333333,0.4833333333333333,0.6625000000000001,0.7791666666666668,0.8,0.6041666666666666,0.26666666666666666,-0.15,-0.4791666666666666,-0.6083333333333334,-0.6083333333333334,-0.5333333333333333,-0.43333333333333335,-0.325,-0.26666666666666666,-0.23333333333333334,-0.2125,-0.22083333333333333,-0.22500000000000006,-0.22083333333333333,-0.2125,-0.2291666666666667,-0.20833333333333331,-0.21666666666666667,0.0,0.0,0.0,0.0,0.0,0.0,0.0,0.0,0.0,0.0,0.0,0.0,0.0,0.0,0.0,0.0,0.0,0.0,0.0,0.0,0.0,0.0,0.0,0.0,0.0,0.0,0.0,0.0,0.0,0.0,0.0,0.0,0.0,0.0,0.0,0.0,0.0,0.0,0.0,0.0,0.0,0.0,0.0,0.0,0.0,0.0,0.0,0.0,0.0,0.0,0.0,0.0,0.0,0.0,0.0,0.0,0.0,0.0,0.0,0.0,0.0,0.0,0.0,0.0,0.0,0.0,0.0,0.0,0.0,0.0,0.0,0.0,0.0,0.0,0.0,0.0,0.0,0.0,0.0,0.0,0.0,0.0,0.0,0.0,0.0,0.0,0.0,0.0,0.0,0.0,0.0,0.0,0.0,0.0,0.0,0.0,0.0,0.0,0.0,0.0,0.0,0.0,0.0,0.0,0.0,0.0,0.0,0.0,0.0,0.0,0.0,0.0,0.0,0.0,0.0,0.0,0.0,0.0,0.0,0.0,0.0,0.0,0.0,0.0,0.0,0.0,0.0,0.0,0.0,0.0,0.0,0.0,0.0,0.0,0.0,0.0,0.0,0.0,0.0,0.0,0.0,0.0,0.0,0.0,0.0,0.0,0.0,0.0,0.0,0.0,0.0,0.0,0.0,0.0,0.0,0.0,0.0,0.0,0.0,0.0,0.0,0.0,0.0,0.0,0.0,0.0,0.0,0.0,0.0,0.0,0.0,0.0,0.0,0.0,0.0,0.0,0.0,0.0,0.0,0.0,0.0,0.0,0.0,0.0,0.0,0.0,0.0,0.0,0.0,0.0,0.0,0.0,0.0,0.0,0.0,0.0,0.0,0.0,0.0,0.0,0.0,0.0,0.0,0.0,0.0,0.0,0.0,0.0,0.0,0.0,0.0,0.0,0.0,0.0,0.0,0.0,0.0,0.0,0.0,0.0,0.0,0.0,0.0,0.0,0.0,0.0,0.0,0.0,0.0,0.0,0.0,0.0,0.0,0.0,0.0,0.0,0.0,0.0,0.0,0.0,0.0,0.0,0.0,0.0,0.0,0.0,0.0,0.0,0.0,0.0,0.0,0.0,0.0,0.0,0.0,0.0,0.0,0.0,0.0,0.0,0.0,0.0,0.0,0.0,0.0,0.0,0.0,0.0,0.0,0.0,0.0,0.0,0.0,0.0,0
